II/, ABP/, PLETH/, RESP/
114,52,130,185
114,51,133,177
114,50,137,170
117,49,140,163
121,49,144,156
127,50,147,149
134,53,149,142
138,61,151,135
140,79,152,128
141,106,152,120
142,139,151,113
138,171,149,105
135,192,147,98
132,200,144,91
131,198,140,85
131,189,137,79
131,179,133,73
131,167,130,69
131,157,127,64
130,148,124,60
127,139,122,56
122,129,121,52
128,118,119,49
170,106,118,46
225,92,118,43
228,79,118,41
143,72,118,38
120,71,117,36
126,78,117,34
126,86,117,32
126,92,117,30
126,95,117,27
126,96,117,25
126,95,117,22
126,94,117,20
126,93,117,17
125,91,117,15
125,87,117,13
125,82,117,11
124,75,117,8
123,67,117,5
121,60,118,2
119,55,119,0
116,51,121,0
114,49,124,0
113,47,127,0
114,46,130,0
116,45,134,0
120,45,137,0
127,47,140,0
133,49,143,0
138,57,144,0
140,72,145,0
141,97,145,0
142,131,144,0
140,163,142,0
136,188,140,0
134,199,137,0
132,199,134,0
132,192,131,0
132,181,127,0
132,171,123,0
132,160,120,0
131,151,116,0
129,141,114,0
124,132,112,0
122,121,110,0
155,110,108,0
216,97,108,0
233,84,107,0
163,75,107,0
122,72,107,0
122,78,107,0
127,87,108,0
127,94,108,0
126,98,108,0
126,99,108,0
126,98,108,0
126,97,107,0
126,96,107,0
126,95,107,0
126,92,106,0
126,87,106,0
125,80,106,4
124,72,107,9
122,65,108,13
120,59,109,17
118,54,111,21
115,51,114,25
114,49,117,30
114,48,121,34
116,47,125,37
119,47,129,41
125,48,133,44
131,51,136,47
137,57,138,49
140,71,140,51
141,95,140,53
142,127,140,55
141,161,139,56
138,186,137,57
135,199,134,58
133,201,131,58
132,194,128,58
131,183,125,59
131,172,121,59
131,161,118,59
131,151,115,59
130,142,113,59
126,133,112,59
122,123,110,58
139,111,109,58
192,98,108,58
230,85,107,57
187,75,107,57
129,72,107,56
120,76,108,56
127,84,108,55
126,91,108,54
126,95,108,53
126,95,108,53
125,95,108,51
126,94,108,50
126,93,107,49
126,92,107,48
125,89,107,46
125,85,107,45
124,79,107,43
124,71,107,41
122,65,108,38
121,59,110,36
118,54,112,33
115,51,114,30
113,48,117,27
113,47,121,24
114,46,125,21
117,46,129,18
122,47,133,16
129,48,137,14
135,53,139,12
140,63,141,10
141,83,141,8
142,112,141,6
143,146,139,4
139,176,137,2
136,195,135,1
134,201,132,0
132,198,129,0
132,189,126,0
132,179,122,0
132,168,119,0
132,159,117,0
131,149,115,0
128,140,113,0
123,131,111,0
131,120,109,0
172,108,108,0
226,94,107,0
229,82,107,0
143,75,107,1
122,76,107,3
128,83,108,5
128,92,108,8
127,98,108,11
127,100,108,14
127,100,108,17
127,99,108,20
127,97,108,24
127,97,108,27
126,95,108,32
126,91,108,36
126,86,108,41
125,79,109,45
124,71,109,50
122,64,109,55
119,59,111,59
117,54,113,63
114,51,116,66
114,49,120,70
114,48,124,73
116,47,129,76
121,47,133,78
127,48,136,81
133,51,139,83
138,59,141,84
140,75,142,86
141,101,142,87
142,135,141,88
140,167,140,89
136,190,137,89
134,200,135,90
132,199,131,89
131,191,128,89
131,180,124,88
131,168,121,87
131,158,118,86
131,148,116,85
129,139,113,84
124,130,111,82
122,119,110,80
153,108,109,79
214,95,109,77
232,82,109,75
165,73,109,73
122,71,109,71
121,77,109,69
127,85,109,67
126,92,109,64
126,95,109,62
126,96,109,59
126,96,109,57
126,95,109,54
126,94,109,51
126,93,109,49
126,89,109,46
125,84,109,43
125,77,109,41
124,70,110,39
122,63,111,36
120,58,112,34
118,54,113,32
115,51,115,29
114,49,118,27
114,48,122,25
116,48,126,23
119,48,130,21
124,49,134,19
131,51,137,17
137,57,140,15
140,71,142,14
141,94,142,12
142,126,142,11
142,159,140,9
138,185,139,8
135,200,136,7
133,203,133,7
132,197,129,6
132,187,125,6
132,176,122,7
132,166,118,8
132,156,115,9
131,147,113,11
127,138,111,13
122,128,110,15
137,117,109,18
189,104,109,21
232,91,108,24
194,81,109,27
133,77,109,31
122,81,109,36
127,89,109,41
127,97,109,46
127,101,110,52
126,101,110,58
126,100,110,64
126,99,110,70
126,97,110,76
127,96,110,81
126,94,110,86
125,90,110,91
125,84,110,95
124,77,110,100
123,69,111,104
121,63,112,108
119,58,114,111
116,55,116,114
114,52,120,117
113,51,124,119
114,50,128,121
117,50,132,122
121,50,135,123
127,51,138,123
134,55,141,123
138,65,143,122
140,85,143,121
140,113,143,120
141,147,142,120
138,177,140,119
135,195,137,117
132,201,134,116
131,197,130,115
131,188,127,113
130,177,124,111
130,165,121,110
130,155,118,109
131,146,116,107
127,137,114,106
122,127,113,105
127,117,112,103
166,105,111,102
222,91,111,100
229,79,111,98
145,72,111,97
119,73,111,95
125,80,111,93
126,88,111,91
126,94,112,90
125,96,112,88
125,96,112,86
125,95,112,83
125,95,111,81
125,93,111,78
125,92,111,75
125,89,111,73
124,83,111,70
124,75,111,67
122,68,112,64
121,61,113,61
119,57,115,58
116,53,117,55
113,50,120,52
112,49,123,48
113,47,127,45
115,47,131,41
119,47,135,38
125,48,138,35
132,51,141,32
137,59,143,29
140,74,145,27
141,99,145,24
142,132,144,22
140,165,142,20
136,189,140,17
134,201,136,16
132,200,132,14
132,193,128,12
132,183,125,11
132,171,121,10
132,161,118,9
132,152,116,8
130,143,114,7
124,134,112,7
122,124,111,7
150,113,110,7
209,100,110,8
230,87,109,8
170,78,109,9
124,76,110,10
122,81,110,12
127,90,110,14
127,97,110,16
126,101,110,19
126,101,110,22
126,100,110,25
126,99,110,28
126,97,110,32
126,96,110,35
126,93,111,40
125,89,111,44
125,82,111,49
124,75,112,55
122,68,112,60
121,62,114,66
118,57,116,72
116,54,118,77
114,52,121,83
115,51,125,88
116,50,128,92
119,51,132,97
124,51,136,101
131,54,139,105
137,60,142,108
139,73,145,112
140,96,146,115
141,128,145,118
142,161,144,120
138,188,142,122
135,202,139,124
133,205,135,126
132,199,132,127
131,189,129,128
131,177,126,129
131,167,122,131
131,157,120,132
130,148,118,133
126,139,116,133
121,129,115,134
134,117,114,135
183,104,113,136
230,91,113,136
196,80,112,137
134,75,112,138
121,78,112,138
126,85,112,139
126,93,113,139
126,97,113,140
125,98,114,141
125,98,114,141
125,97,114,141
125,95,114,141
125,94,114,142
125,92,113,141
125,88,113,140
124,82,113,139
123,75,113,137
122,68,114,136
120,62,115,134
118,57,117,132
115,54,120,130
113,51,123,126
112,49,127,123
113,48,131,119
116,48,135,115
121,49,138,111
127,50,142,108
134,54,144,104
139,63,145,100
140,81,146,96
142,109,146,91
142,143,145,86
139,175,143,82
136,196,140,77
134,205,138,72
132,202,134,68
132,194,131,63
132,183,127,59
132,173,124,55
132,163,121,52
131,154,118,49
128,145,116,47
123,136,115,45
129,126,114,43
169,114,113,41
227,101,113,40
234,88,112,39
149,80,112,38
122,79,111,38
127,85,111,39
127,94,112,40
127,101,112,42
127,105,112,44
126,106,113,48
126,106,113,51
127,105,113,56
127,104,112,61
126,102,112,66
126,99,112,71
126,93,112,77
125,85,112,82
124,78,113,89
122,71,114,96
120,65,116,104
118,61,119,112
115,58,122,120
114,57,125,128
115,57,128,135
117,57,132,143
121,57,137,152
126,58,141,160
133,61,144,170
138,70,146,179
140,87,147,189
141,115,147,199
142,149,146,209
140,181,144,219
136,204,142,229
134,214,139,238
132,212,137,246
131,204,134,254
131,193,130,255
130,181,127,255
131,171,123,255
131,161,120,255
129,153,118,255
123,143,116,255
121,133,115,255
147,122,114,255
209,109,113,255
234,97,113,255
176,88,113,255
125,87,114,255
121,92,114,255
126,100,115,255
126,106,115,255
126,109,115,255
125,110,116,255
125,109,116,255
125,108,116,255
125,107,116,255
125,105,116,255
125,101,116,255
124,96,116,255
124,89,116,255
123,81,116,255
122,74,117,255
120,68,118,255
117,64,120,255
114,61,123,255
113,59,126,255
113,59,130,255
115,58,135,255
118,57,139,255
123,58,143,255
130,59,146,255
136,64,148,255
139,75,150,255
139,97,150,255
140,129,150,255
141,163,149,255
136,191,147,255
134,207,145,255
131,210,142,255
131,205,139,255
130,194,136,255
130,181,133,255
130,170,130,255
130,159,128,255
128,150,127,255
124,141,125,255
121,131,124,255
139,120,123,255
194,107,122,255
234,94,122,255
189,84,122,255
129,81,122,255
120,85,122,255
126,93,122,255
125,100,123,255
125,104,123,255
125,105,123,255
125,104,123,255
125,103,123,255
125,102,123,255
125,100,123,255
125,97,123,255
125,93,122,255
124,87,122,254
123,79,121,249
122,71,122,244
120,65,123,238
118,60,124,233
115,57,126,225
113,55,129,218
113,53,132,211
114,53,136,203
117,53,140,195
122,53,144,188
128,54,147,180
135,58,150,173
138,67,152,165
139,86,153,158
140,115,153,150
140,150,152,142
137,180,150,135
134,199,147,127
131,205,145,121
130,200,141,115
130,191,137,108
130,179,133,102
130,168,130,97
130,158,126,91
129,148,124,86
126,139,122,81
121,129,120,77
133,119,119,72
181,106,118,69
229,92,118,65
197,80,118,63
134,74,117,60
121,75,117,58
126,83,117,55
126,91,117,53
125,96,117,51
125,98,117,49
125,98,117,47
125,98,116,46
125,97,116,44
125,95,116,42
125,93,116,39
125,89,116,37
124,83,116,34
123,75,116,31
122,68,117,27
120,62,117,24
118,57,118,20
115,54,120,16
113,51,123,13
112,49,127,10
113,48,131,6
116,48,135,3
121,49,138,0
127,50,141,0
134,53,143,0
138,62,144,0
140,78,144,0
141,105,144,0
142,137,143,0
139,169,142,0
135,191,139,0
133,200,136,0
132,199,132,0
132,192,129,0
132,182,125,0
132,171,121,0
132,161,119,0
131,151,116,0
128,142,114,0
123,133,112,0
129,122,110,0
167,110,109,0
223,97,107,0
230,85,106,0
148,78,106,0
121,78,105,0
127,84,105,0
127,93,106,0
127,99,106,0
126,101,106,0
126,101,107,0
126,100,107,0
126,99,107,0
126,97,107,0
126,96,107,0
126,93,107,0
126,88,106,0
125,81,106,2
123,73,107,4
122,67,107,8
119,61,108,13
117,57,109,17
115,53,112,22
114,51,115,26
114,51,118,31
117,50,122,34
120,50,127,38
126,51,131,41
133,54,134,44
138,62,137,46
140,77,139,48
140,103,139,50
142,136,139,52
140,168,137,54
137,191,136,55
134,202,133,56
132,201,129,57
132,193,126,58
131,182,122,58
131,170,118,59
131,160,115,59
131,151,112,59
129,141,109,60
125,132,107,59
122,122,106,59
147,110,105,59
206,97,104,59
230,83,104,59
173,74,104,59
124,73,105,58
121,78,105,58
127,87,105,58
126,93,106,57
126,96,106,56
126,97,106,55
126,97,105,54
126,96,105,53
126,95,105,51
126,93,104,50
126,90,104,48
125,85,104,47
125,78,104,44
124,71,105,42
122,64,105,40
120,59,106,37
118,55,108,34
115,51,111,32
113,49,114,30
114,48,118,27
115,47,122,25
119,47,125,22
124,48,129,19
131,50,132,17
137,55,134,14
140,67,137,11
141,89,138,9
142,120,138,6
142,155,137,4
138,183,135,2
135,199,132,1
133,203,128,0
132,198,125,0
132,188,121,0
132,177,118,0
132,167,116,0
132,157,113,0
131,148,111,0
128,139,109,0
123,129,107,0
137,118,106,0
188,105,105,0
232,92,104,0
195,81,104,1
134,76,104,3
123,79,104,6
128,86,105,9
127,94,105,12
127,99,106,15
127,101,106,18
127,100,107,21
127,99,107,25
127,98,107,28
127,97,106,32
127,95,106,37
127,91,106,41
126,85,106,45
125,78,107,50
123,70,107,54
122,64,108,58
119,59,110,61
116,55,112,65
114,53,114,69
114,51,117,73
115,50,121,76
118,49,125,79
122,50,129,81
128,51,133,84
135,55,137,86
139,65,139,87
140,85,140,89
141,115,140,90
142,148,139,90
139,178,137,91
135,197,135,91
133,203,132,91
132,199,128,91
131,189,125,91
131,178,122,90
131,167,119,90
131,157,116,89
131,147,113,89
128,138,111,88
123,129,109,87
122,118,108,86
165,105,107,85
222,92,106,84
229,80,106,83
147,74,106,82
120,75,107,81
126,81,107,80
127,89,107,79
126,94,108,77
126,96,108,76
126,96,108,74
126,96,108,72
126,95,107,70
126,94,107,69
126,92,107,66
125,88,107,64
125,82,107,62
124,75,107,60
123,68,107,57
121,62,108,54
119,57,109,51
116,53,112,48
113,50,115,45
112,48,118,42
113,47,122,39
115,46,126,36
119,47,129,33
125,48,133,31
133,51,136,28
138,58,138,25
140,73,140,22
141,99,140,19
142,132,140,17
141,165,138,15
137,190,136,12
134,201,132,10
133,201,129,8
132,194,125,6
132,183,122,4
132,172,119,2
132,161,116,1
132,151,113,0
130,143,111,0
125,134,109,0
123,124,108,0
150,113,107,0
209,101,106,0
230,88,106,0
171,78,106,0
125,75,106,0
122,80,106,0
128,89,106,0
127,96,106,0
127,100,106,0
127,101,106,2
127,100,106,4
127,99,105,7
127,98,105,10
127,97,105,14
126,93,104,18
126,89,104,22
125,82,104,27
124,74,105,33
123,67,105,38
121,61,106,43
119,57,108,48
116,53,111,53
115,51,114,58
115,50,118,64
116,49,122,69
119,49,127,74
124,50,131,79
130,52,135,84
136,58,138,88
139,71,140,92
140,94,141,96
141,126,141,99
141,160,140,103
138,187,138,106
135,201,135,109
133,204,131,112
132,198,128,114
131,188,124,116
131,177,120,118
131,165,117,119
131,156,114,121
130,147,112,122
127,137,110,123
122,127,109,124
135,116,108,125
184,102,108,126
230,89,107,127
197,77,107,127
134,73,107,128
121,76,107,129
127,84,107,129
127,91,108,129
126,96,108,130
126,97,108,130
126,97,108,130
126,95,108,129
126,94,108,129
126,92,108,127
125,90,107,126
125,86,107,125
125,80,107,124
124,73,107,122
122,66,107,120
121,60,108,117
118,55,110,115
115,51,113,111
113,49,117,108
112,47,120,105
113,47,123,101
116,46,127,98
120,47,131,94
127,48,135,90
134,52,138,86
139,61,140,82
140,79,141,77
142,107,141,73
142,141,141,68
139,172,139,64
136,193,136,59
134,201,134,55
132,199,131,51
132,190,127,48
132,179,123,44
132,169,119,41
132,158,116,38
132,149,113,35
128,140,110,32
123,131,109,30
130,121,107,28
169,110,107,26
225,97,106,24
230,84,106,23
146,76,106,22
122,75,106,22
127,82,107,22
128,90,107,23
127,97,107,23
127,100,109,25
127,100,111,26
127,99,111,28
127,98,112,30
126,97,111,32
126,95,111,34
126,92,111,37
125,86,111,40
125,79,111,44
124,71,112,48
122,65,113,51
120,59,114,55
117,55,116,59
115,51,119,63
114,49,122,67
115,49,126,71
117,48,130,75
121,49,134,79
127,49,138,83
133,53,141,87
138,60,144,91
140,77,145,94
141,104,146,97
142,138,145,100
141,171,143,103
137,194,141,105
134,204,138,107
133,203,135,109
132,195,132,111
132,184,129,113
132,173,125,114
132,163,122,116
132,153,120,117
130,145,118,119
125,135,116,120
123,125,114,122
150,113,113,123
208,99,112,124
230,86,112,126
172,77,112,128
125,75,112,130
122,80,113,132
128,89,113,133
127,96,113,135
127,99,113,137
127,100,113,139
127,99,113,140
127,97,113,142
127,96,113,143
127,95,113,145
127,92,113,146
126,87,113,148
125,80,113,148
124,73,113,149
123,66,113,149
121,60,115,150
118,56,117,149
116,53,119,149
114,50,121,148
114,49,125,147
115,49,129,145
119,49,133,144
124,49,137,142
130,52,140,141
136,58,143,139
139,72,145,137
140,95,146,135
141,128,146,133
142,162,145,130
138,189,143,128
135,203,141,126
132,205,138,124
132,198,135,122
131,187,131,121
131,176,127,119
131,165,124,118
131,156,121,117
130,147,118,116
126,139,115,116
121,129,113,115
136,118,112,115
189,106,111,115
235,93,111,116
196,81,111,116
134,76,111,117
122,78,111,117
127,85,111,118
127,93,112,119
127,99,112,120
126,101,112,121
126,102,113,122
127,101,113,123
127,100,114,125
127,99,114,126
127,97,114,128
126,92,114,129
126,86,114,131
125,79,114,133
123,71,114,135
122,65,114,137
119,60,115,139
117,56,117,142
115,54,120,144
114,53,124,146
115,52,128,149
118,52,133,151
122,53,137,154
129,55,141,157
135,59,144,161
140,71,146,164
141,93,147,168
142,125,147,171
142,161,146,175
139,191,144,179
135,210,141,184
133,215,138,189
132,211,135,195
131,201,131,202
131,189,128,209
131,178,124,217
131,168,121,225
131,159,119,234
127,150,117,242
122,141,115,250
128,130,114,253
169,118,113,255
229,105,113,255
235,93,113,255
150,86,113,255
122,87,114,255
127,94,114,255
127,102,115,255
126,107,115,255
126,109,115,255
126,109,116,255
126,108,116,255
126,107,116,255
126,106,116,255
126,103,116,255
126,100,115,255
125,94,115,255
124,87,116,255
123,78,116,255
122,71,117,255
119,65,118,255
117,62,120,255
115,59,122,255
114,58,126,255
114,57,130,255
116,57,134,255
120,57,139,255
126,57,143,255
133,60,147,255
138,67,149,255
140,83,151,255
141,111,152,255
141,145,151,255
139,179,150,255
135,202,148,255
133,211,145,255
131,209,142,255
131,200,138,255
131,188,135,255
131,176,131,255
131,165,128,255
131,156,125,255
128,147,123,255
123,137,122,255
122,127,121,255
158,115,120,255
218,102,120,255
233,90,120,255
160,82,120,255
122,82,120,255
126,88,120,255
127,96,120,255
126,102,121,255
126,104,121,255
126,104,121,255
126,103,121,255
126,102,120,255
126,101,120,255
126,99,120,255
126,95,119,255
125,90,119,255
125,83,119,255
124,75,119,255
122,68,120,255
120,62,121,251
118,58,123,246
115,55,125,240
114,53,129,233
114,52,132,227
116,51,136,221
119,51,140,213
125,52,143,205
132,54,146,197
137,60,149,189
139,73,151,180
140,96,152,171
141,128,152,162
140,161,151,153
136,187,149,145
133,201,146,137
131,203,143,130
131,196,139,122
131,185,136,116
131,173,133,109
131,163,130,103
130,153,128,97
128,143,125,92
123,134,122,87
121,124,120,83
151,112,119,79
211,99,118,75
231,86,118,71
166,77,118,68
122,75,118,65
121,79,118,62
126,86,119,59
126,92,119,56
126,95,119,53
125,96,119,51
125,96,119,48
125,95,119,46
125,94,119,44
126,93,119,41
125,90,119,38
125,85,119,35
124,79,119,32
123,72,119,29
122,65,119,26
119,59,119,23
117,55,120,20
114,52,122,16
113,49,124,13
113,48,128,9
114,47,132,5
118,47,136,2
124,47,140,0
131,49,144,0
137,55,146,0
139,67,148,0
140,89,148,0
142,120,148,0
141,154,147,0
137,182,145,0
134,198,142,0
132,201,139,0
132,196,135,0
132,186,131,0
132,175,127,0
132,164,123,0
132,155,119,0
130,145,116,0
126,137,114,0
123,127,111,0
143,116,108,0
200,103,106,0
231,89,105,0
182,79,105,0
127,74,105,0
121,78,105,0
127,86,105,0
127,94,105,0
127,99,105,0
126,100,105,0
126,100,105,0
126,99,105,0
126,98,105,0
126,97,105,0
126,94,105,0
126,90,105,0
125,84,105,0
124,76,105,0
123,69,105,0
121,62,106,4
119,57,107,8
117,53,109,13
115,51,111,17
115,50,115,22
116,49,119,26
119,49,123,30
123,50,126,34
129,51,130,37
135,56,133,40
139,67,136,42
140,88,137,45
141,119,138,47
142,153,138,49
139,183,136,51
135,200,134,53
133,205,131,54
132,200,127,55
131,190,123,56
131,179,120,57
131,167,116,58
131,157,113,59
130,147,110,59
127,138,108,60
122,128,105,61
132,117,104,61
176,104,103,61
227,91,102,62
202,80,102,62
138,75,102,62
121,77,103,62
127,84,103,63
127,91,103,63
126,96,104,63
126,97,104,63
126,96,104,63
126,95,103,63
126,94,103,63
126,93,104,62
125,91,104,62
125,87,104,60
125,82,104,59
124,75,104,57
123,68,104,55
121,61,105,53
118,56,106,51
115,53,108,48
113,50,111,46
112,48,114,44
113,47,119,41
116,46,123,39
120,47,127,36
127,48,130,33
134,51,134,30
138,60,136,27
140,77,138,24
142,104,139,22
142,137,138,19
140,169,137,17
136,191,135,14
134,201,132,11
132,199,128,9
132,191,124,6
132,180,120,3
132,169,116,1
132,158,113,0
131,149,110,0
129,140,108,0
123,131,106,0
123,121,105,0
164,109,105,0
222,96,104,0
232,83,104,0
152,75,104,0
122,74,104,0
127,80,104,0
127,89,104,0
127,95,104,0
127,99,104,0
127,99,104,0
127,99,105,0
127,98,105,0
127,97,105,0
127,95,105,0
126,93,105,0
126,87,105,0
125,81,105,0
124,73,106,0
122,65,106,0
120,60,107,1
118,55,109,4
115,52,112,7
115,50,115,10
115,49,118,13
117,49,121,17
120,49,125,20
126,50,129,23
132,53,133,27
137,59,136,30
139,75,138,34
140,101,139,38
142,135,139,42
141,169,138,47
137,193,135,51
134,205,133,56
132,204,130,60
132,196,127,64
131,185,123,68
131,173,120,72
131,163,116,76
131,153,113,79
130,145,109,83
125,136,107,87
122,125,105,90
142,113,104,93
197,100,103,97
231,86,103,100
183,76,103,103
127,73,103,105
121,78,104,108
127,86,104,111
126,93,105,113
126,96,105,115
126,96,105,117
126,95,106,118
126,95,106,120
126,93,105,120
126,92,105,121
125,90,105,121
125,85,105,121
124,79,105,120
123,71,105,119
122,64,106,118
120,58,106,116
117,54,108,114
114,50,110,112
112,48,113,109
112,46,117,106
114,46,121,103
117,45,125,99
122,46,129,95
129,48,133,90
135,53,136,85
139,64,138,80
140,85,139,75
142,115,140,70
142,149,139,65
139,179,138,60
135,196,135,56
133,201,132,52
133,197,129,48
132,187,125,43
132,176,121,39
132,165,117,35
132,156,114,32
131,147,111,28
127,138,109,25
123,129,107,23
135,118,105,20
183,106,105,18
230,93,104,15
199,81,104,13
136,75,105,11
123,77,105,10
128,84,105,9
128,92,106,8
127,97,106,7
127,99,106,7
127,99,106,7
127,99,106,7
127,98,106,8
127,97,106,9
127,95,105,11
127,91,106,13
126,85,106,15
125,78,106,17
124,71,106,19
122,64,107,21
120,59,108,24
117,55,110,26
115,52,113,30
115,50,115,33
116,49,118,37
119,49,123,40
123,49,127,44
128,51,131,48
135,55,135,52
140,64,138,56
141,83,140,59
142,112,140,62
142,146,140,66
140,177,138,69
136,197,135,73
134,204,133,76
132,201,130,79
132,193,126,83
132,181,123,86
132,170,119,88
132,160,116,91
131,151,113,94
129,142,111,98
124,133,109,101
122,122,108,104
158,110,107,107
217,97,106,110
231,84,106,113
157,76,106,116
121,76,106,118
125,81,106,120
127,89,106,122
126,94,106,124
126,96,107,126
126,96,107,127
126,95,107,129
126,94,107,130
126,93,107,132
126,91,106,132
125,88,106,133
125,83,106,133
124,76,106,133
123,69,106,132
121,62,107,131
119,57,108,129
116,53,110,127
113,49,113,124
112,47,116,121
112,46,120,118
114,45,125,114
119,45,129,111
125,46,133,108
132,49,136,103
137,55,138,99
140,69,140,94
141,94,141,90
142,127,141,85
141,161,140,80
137,186,139,76
134,199,138,72
133,200,136,68
132,193,133,63
132,183,129,59
132,171,125,54
132,161,122,50
132,151,119,46
130,142,117,42
125,133,115,38
123,123,114,35
150,112,113,32
209,99,112,29
231,86,112,27
172,76,112,24
124,72,112,22
122,76,113,21
127,84,113,19
127,93,113,18
127,97,113,17
127,99,113,16
126,99,112,15
126,98,112,16
126,97,112,16
126,96,112,16
126,93,112,17
126,89,113,18
125,82,113,20
124,75,113,22
123,67,114,24
121,61,115,26
118,56,117,28
116,53,119,30
115,50,121,32
115,49,124,35
116,48,127,37
119,48,131,40
124,49,135,44
130,51,139,47
136,57,142,50
140,70,145,53
141,93,146,56
142,125,147,59
142,159,146,63
139,186,144,67
135,201,142,71
133,204,140,74
132,198,136,78
132,188,132,82
132,177,128,86
132,166,124,90
132,156,121,93
130,147,118,97
127,138,116,100
122,128,114,103
133,117,113,106
179,104,112,109
229,91,111,113
201,80,111,115
137,75,111,118
121,79,111,121
127,86,111,123
127,94,111,126
127,98,112,128
126,99,112,130
126,99,113,133
126,97,114,135
126,95,114,137
126,93,114,138
126,91,114,140
125,86,113,141
124,80,113,142
124,73,113,143
122,66,113,143
121,59,114,143
118,54,115,142
115,51,117,141
113,48,120,140
112,46,124,139
113,45,128,138
116,45,132,136
120,45,135,134
127,47,139,132
134,50,142,129
138,59,144,126
140,78,146,123
141,107,146,119
142,142,146,115
139,173,145,111
135,194,142,107
133,202,139,103
132,199,136,99
131,190,132,95
131,179,128,91
131,168,125,87
131,159,122,83
132,150,119,79
128,141,116,75
123,132,115,72
123,122,113,68
166,110,113,65
225,97,113,62
233,84,113,60
150,75,113,57
122,73,113,55
127,80,113,52
128,89,114,51
127,97,114,49
127,100,115,48
127,101,115,47
126,101,115,47
126,100,115,46
126,99,114,47
126,98,114,47
126,95,114,48
126,89,113,49
125,82,113,50
124,75,114,52
122,67,115,54
120,61,116,55
118,57,117,57
115,55,119,60
114,53,122,63
115,53,126,66
117,52,130,70
120,53,134,75
126,53,138,80
133,57,142,86
138,65,145,93
140,83,148,99
141,111,149,106
142,146,149,112
141,180,148,119
137,203,146,126
134,213,142,134
132,212,139,143
131,203,134,152
131,191,130,162
131,180,126,172
131,169,123,182
131,160,120,191
130,151,118,201
125,142,117,211
122,133,115,222
145,121,114,233
206,108,114,244
238,95,113,250
183,86,113,255
128,84,112,255
122,89,112,255
127,97,112,255
127,103,112,255
126,107,113,255
126,107,114,255
126,107,114,255
126,105,115,255
125,104,115,255
125,102,115,255
126,99,115,255
125,94,115,255
125,87,115,255
124,79,115,255
122,72,116,255
120,66,117,255
118,61,119,255
115,59,122,255
114,57,125,255
114,56,129,255
115,55,133,255
118,55,137,255
124,55,140,255
130,57,143,255
136,63,146,255
139,75,148,255
140,99,150,255
141,131,150,255
141,166,149,255
137,195,148,255
134,209,145,255
132,212,143,255
131,205,140,255
131,193,137,255
130,181,134,255
130,169,131,255
130,160,128,255
129,151,126,255
125,142,124,255
121,132,122,255
138,121,121,255
192,109,120,255
234,95,120,255
191,84,120,255
131,79,120,255
122,82,120,255
127,90,121,255
126,98,121,255
126,103,121,255
126,105,121,255
126,104,121,255
126,103,121,255
126,101,121,255
126,99,121,255
126,97,121,255
125,92,120,255
125,85,120,255
124,78,120,255
122,70,120,255
121,63,120,255
118,59,121,255
116,55,123,255
114,53,126,255
114,52,129,255
115,51,133,251
118,51,138,247
122,51,142,240
128,52,146,232
135,55,149,224
138,65,152,215
140,83,153,207
141,113,154,199
141,147,154,192
137,178,153,184
134,197,151,177
132,203,148,169
131,199,144,161
131,190,139,153
130,178,135,146
130,167,131,139
130,157,128,132
130,147,125,126
126,138,123,120
122,128,122,114
134,117,121,110
182,103,120,105
228,90,120,100
194,78,120,96
132,71,120,92
120,73,120,88
126,80,120,84
126,88,120,81
126,93,120,78
126,96,120,75
126,96,120,72
126,96,120,68
125,95,121,64
125,93,121,60
125,91,121,56
125,87,121,51
124,80,121,46
123,73,121,41
122,65,121,36
120,59,121,31
118,55,122,27
115,51,123,23
113,49,125,18
112,47,128,13
113,45,129,8
116,45,130,3
121,45,132,1
128,47,135,0
135,51,138,0
139,59,140,0
140,77,142,0
142,104,142,0
142,137,142,0
139,169,141,0
135,190,138,0
133,199,135,0
132,197,132,0
132,189,128,0
132,178,125,0
132,167,121,0
132,157,118,0
131,148,115,0
128,139,112,0
123,129,110,0
129,119,108,0
170,107,107,0
226,94,106,0
230,82,106,0
145,75,105,0
122,75,105,0
127,82,105,0
128,90,104,0
127,96,104,0
127,99,104,0
127,99,103,0
127,98,103,0
127,97,104,0
127,97,104,0
127,95,104,0
126,92,104,0
126,86,105,0
125,79,105,0
124,71,105,0
122,64,106,0
120,59,106,0
118,55,107,0
116,51,109,0
115,50,112,0
115,49,115,0
117,48,119,0
121,48,123,0
127,49,127,0
133,53,131,4
138,61,135,8
140,77,137,12
141,105,138,17
142,139,138,22
140,171,137,26
137,194,135,30
134,204,133,34
132,203,129,38
131,194,126,42
131,182,122,45
131,171,118,49
131,160,115,52
131,150,112,56
129,141,110,59
124,131,108,62
122,121,106,65
148,109,105,67
207,95,105,70
229,83,105,72
170,73,104,74
123,72,104,77
121,78,104,78
127,86,104,80
126,93,105,81
126,95,105,82
126,95,105,83
126,95,105,83
126,94,105,83
125,93,105,83
125,91,104,82
125,89,104,81
125,83,104,79
124,77,104,77
123,69,104,74
122,62,104,72
120,56,105,70
117,52,107,67
114,49,109,63
113,47,112,60
113,45,115,56
114,45,118,52
118,45,123,47
124,45,127,43
131,47,131,38
137,53,134,33
140,65,137,29
141,87,139,25
143,119,139,22
142,153,138,18
138,181,136,15
135,197,133,11
133,200,130,8
132,195,127,4
132,185,123,2
132,173,120,0
132,163,116,0
132,153,113,0
130,145,111,0
127,136,108,0
123,126,106,0
140,115,104,0
192,102,103,0
231,89,103,0
187,78,102,0
129,73,102,0
121,75,103,0
127,83,103,0
127,91,103,0
127,97,104,0
127,99,104,0
127,99,104,0
126,98,105,0
126,97,105,0
126,96,105,0
126,93,105,1
126,89,105,4
125,83,105,7
125,75,105,11
123,68,105,15
121,61,106,19
119,56,108,24
117,53,110,29
115,50,112,33
115,49,116,39
116,48,120,44
118,48,124,48
123,48,128,53
128,50,132,57
135,55,135,61
139,65,137,65
140,85,139,69
141,115,139,73
142,149,139,77
139,178,138,80
136,197,136,83
133,203,133,86
132,200,130,89
132,190,125,91
131,179,121,94
131,167,118,96
131,157,114,99
131,147,111,101
128,138,109,103
123,128,107,104
122,117,106,106
167,104,105,107
223,91,104,109
229,79,104,110
146,72,104,111
121,73,104,112
126,79,105,113
127,87,105,113
126,92,106,114
126,94,106,114
126,95,107,114
126,94,107,114
126,93,107,114
126,92,107,114
126,90,107,113
126,87,106,112
125,81,106,110
125,73,106,108
123,66,106,106
122,59,106,103
119,54,107,100
116,50,109,97
114,47,112,94
113,45,114,91
113,45,117,87
116,44,121,83
120,44,125,79
127,45,129,75
134,48,133,70
138,56,136,66
141,73,138,62
142,99,139,58
143,133,139,54
141,166,138,49
137,190,136,45
134,201,134,41
133,200,130,37
132,192,127,33
132,181,123,28
132,170,119,25
132,160,116,21
132,151,113,18
129,142,110,15
124,133,108,13
122,123,106,11
157,111,105,9
218,98,104,8
234,85,103,7
161,76,103,6
122,74,103,5
126,79,104,5
127,88,104,5
127,95,105,5
127,98,105,6
127,99,106,8
126,99,106,10
126,98,107,12
126,97,107,15
126,96,106,18
126,93,106,22
126,88,106,26
125,81,106,30
124,73,106,34
122,65,107,37
120,59,108,41
118,55,109,45
115,52,112,50
114,50,114,54
115,49,118,59
117,48,122,63
120,48,126,68
126,49,130,72
132,51,134,76
137,58,136,80
140,72,139,83
140,97,140,87
142,129,140,91
141,163,140,94
137,189,138,97
134,202,135,101
132,203,132,104
132,196,128,106
131,186,125,108
131,175,121,110
131,164,118,112
131,154,115,114
129,145,112,115
125,135,110,117
122,125,108,118
141,113,107,120
196,100,106,121
229,86,106,122
181,76,105,123
126,72,105,124
120,75,106,125
126,83,106,126
126,91,107,127
126,94,107,127
126,95,107,128
126,95,108,128
125,94,108,128
125,93,108,128
125,92,107,128
125,89,108,127
124,85,110,126
124,79,110,125
123,71,110,124
122,64,111,121
120,58,112,119
117,53,113,117
114,49,115,115
112,47,118,112
112,45,121,110
113,45,125,107
116,44,129,103
122,45,134,99
129,47,138,95
136,52,141,91
139,63,144,86
140,85,145,81
142,115,145,76
142,149,144,72
138,178,143,68
135,195,141,64
133,200,138,60
132,195,135,56
132,186,131,52
132,175,127,48
132,164,123,44
132,154,120,40
131,145,117,37
127,136,114,34
123,126,112,31
136,115,111,28
186,103,110,25
230,90,110,23
194,78,110,20
133,72,110,18
122,73,110,16
127,80,111,15
127,89,111,14
127,95,112,13
127,97,112,12
127,98,112,11
127,97,113,11
127,97,113,11
127,96,113,12
127,94,113,12
127,90,112,13
126,84,112,14
125,76,112,15
124,69,112,17
122,63,112,18
120,58,113,20
117,54,115,22
115,52,118,25
115,50,121,27
116,49,124,30
119,48,128,33
123,48,132,36
129,49,135,39
135,53,139,42
139,63,141,46
140,82,144,49
141,111,145,52
142,146,145,55
140,177,144,59
137,197,142,63
134,205,139,67
132,201,136,71
132,192,132,74
132,181,129,78
132,169,126,81
132,159,122,85
131,149,119,89
129,140,117,93
123,130,114,97
122,119,112,101
161,106,111,105
221,93,110,109
233,80,110,113
154,71,110,117
121,71,110,120
125,78,110,124
127,87,111,127
126,93,111,130
126,95,112,132
126,95,112,135
126,95,112,137
126,94,112,139
126,93,112,141
126,91,112,142
126,87,111,143
125,82,111,143
124,75,111,143
123,67,111,141
121,60,112,140
119,55,113,138
116,51,116,135
114,48,118,132
112,46,121,129
113,45,125,125
115,44,128,122
119,44,132,118
125,45,136,114
132,48,139,110
138,55,142,106
140,71,144,101
142,96,145,96
143,129,145,91
141,162,145,87
137,187,143,82
135,198,141,78
133,199,137,74
132,192,134,70
132,182,130,65
133,171,126,61
133,161,122,57
132,152,119,53
130,143,116,49
125,134,114,46
123,124,113,42
153,113,112,39
214,101,111,37
233,88,110,34
170,78,110,33
125,74,110,31
123,78,111,29
128,86,111,28
128,94,111,27
127,99,112,26
127,101,112,26
127,101,112,26
127,101,113,27
127,101,113,27
127,99,113,29
127,96,113,31
126,91,113,34
126,85,113,37
125,77,113,41
123,70,113,45
121,64,115,49
119,59,116,53
116,56,117,58
115,54,119,63
115,53,122,69
116,52,126,75
119,52,130,82
125,53,134,90
132,56,138,97
138,63,142,104
141,77,144,112
141,103,145,120
142,137,146,129
142,172,145,138
138,198,144,149
135,211,141,160
133,213,138,173
132,206,134,185
132,195,131,198
132,183,128,211
132,172,124,223
132,162,121,234
131,153,119,244
127,145,117,254
122,135,115,255
135,124,113,255
187,111,113,255
235,98,112,255
200,88,112,255
136,84,112,255
123,87,112,255
127,95,112,255
127,102,112,255
127,106,113,255
127,107,113,255
126,106,114,255
126,105,114,255
126,105,115,255
126,103,115,255
126,101,115,255
126,96,115,255
125,89,115,255
124,81,115,255
123,73,115,255
121,67,116,255
119,62,118,255
116,59,119,255
114,57,122,255
114,57,126,255
115,56,131,255
117,55,135,255
122,56,139,255
128,57,143,255
135,61,146,255
139,71,148,255
140,90,149,255
141,121,150,255
142,157,149,255
138,189,148,255
135,208,145,255
133,214,143,255
131,209,140,255
131,199,136,255
131,187,133,255
131,175,129,255
131,164,125,255
130,154,123,255
127,145,121,255
122,136,120,255
130,125,120,255
173,113,119,255
230,99,119,255
233,88,119,255
145,81,119,255
121,83,119,255
126,90,119,255
127,98,119,255
126,103,119,255
126,105,120,255
126,105,120,255
126,104,121,255
126,103,121,255
126,101,121,255
126,99,121,255
126,95,120,255
125,89,120,255
124,81,119,255
123,73,119,255
122,67,120,255
120,61,122,255
117,57,124,255
115,55,127,255
114,53,131,255
115,52,135,255
117,51,139,255
121,51,144,255
127,52,147,250
134,55,150,244
138,63,152,236
140,78,153,227
141,103,153,219
141,136,152,211
139,168,149,204
135,191,147,196
133,202,144,189
131,202,141,181
131,194,137,174
131,183,134,167
130,172,131,160
131,161,128,154
130,151,125,148
127,141,122,143
122,132,121,137
122,121,120,132
166,109,119,127
224,95,119,122
232,83,120,118
148,74,119,113
120,73,118,109
125,79,117,105
126,87,117,101
125,93,117,98
125,96,117,95
125,97,117,91
125,97,117,88
125,95,117,84
125,94,117,81
125,92,117,77
125,88,117,74
124,83,117,70
123,76,117,67
122,68,117,63
121,62,117,59
118,57,118,55
115,53,119,49
112,50,122,44
112,48,125,39
112,47,129,33
115,45,133,27
119,45,137,21
125,46,140,16
133,49,143,11
138,56,145,6
140,71,146,2
141,96,146,1
142,129,146,0
140,161,143,0
136,185,141,0
134,197,137,0
132,198,133,0
132,191,128,0
131,181,124,0
131,169,119,0
131,159,116,0
131,149,113,0
129,140,110,0
124,131,108,0
122,121,107,0
156,109,106,0
215,96,105,0
231,83,105,0
162,73,105,0
122,71,106,0
126,77,106,0
127,85,106,0
127,93,106,0
127,97,106,0
127,98,106,0
127,98,106,0
127,97,105,0
127,96,105,0
127,95,105,0
127,93,105,0
126,87,105,0
126,80,105,0
125,73,105,0
123,65,106,0
121,60,107,0
119,55,109,0
116,53,112,0
115,51,114,0
115,49,117,0
117,49,121,0
120,49,125,0
126,49,129,0
132,52,132,0
138,58,135,0
140,71,136,0
141,95,137,0
142,127,137,0
143,161,135,0
139,187,133,0
136,202,131,0
134,204,127,0
133,198,124,1
132,187,120,3
132,175,117,8
132,165,113,13
132,155,111,19
131,146,108,24
127,137,107,29
123,127,105,34
135,115,104,38
184,102,103,43
230,89,103,47
197,79,103,52
135,74,103,56
123,78,104,61
127,86,104,65
127,94,105,69
127,98,105,72
127,99,105,75
127,99,106,79
126,97,106,82
126,96,105,84
126,95,105,87
126,92,105,89
126,88,105,91
125,82,105,92
124,75,105,93
123,67,106,93
121,61,107,94
119,56,110,94
116,53,112,94
114,50,116,93
113,48,119,92
114,47,124,91
117,46,128,89
121,46,132,87
128,47,135,86
134,51,137,84
138,61,139,82
140,80,139,79
141,109,139,77
142,143,138,75
140,173,136,72
136,193,133,70
134,199,129,67
132,196,125,65
132,187,122,63
131,176,118,61
131,165,115,59
131,155,113,57
131,145,110,55
128,137,108,53
123,127,106,52
122,117,105,50
161,104,104,48
222,91,104,47
233,79,104,45
154,71,104,44
121,71,104,43
125,77,104,41
127,85,104,40
126,92,104,38
126,95,105,36
126,95,105,34
126,95,106,32
126,93,106,29
126,92,107,27
126,91,107,24
125,87,107,22
125,81,107,20
124,74,107,18
123,67,108,15
122,60,108,13
120,55,110,10
117,52,111,8
114,49,114,6
113,47,117,3
113,47,121,2
116,46,125,0
119,46,130,0
125,47,134,0
132,50,137,0
138,56,139,0
141,71,141,0
142,96,141,0
143,130,140,0
142,165,138,0
138,191,136,0
135,203,132,0
133,205,128,0
133,198,124,0
132,188,120,0
132,177,117,0
132,167,113,0
132,158,110,0
131,149,108,0
126,140,106,0
122,130,104,0
142,119,103,0
198,106,103,1
236,93,103,3
189,82,103,9
130,77,103,14
122,80,104,22
127,89,104,29
127,97,104,38
126,102,105,47
126,104,105,56
126,105,104,66
126,104,104,75
126,103,104,85
126,102,104,97
126,99,103,109
126,94,103,122
125,87,103,136
124,78,103,148
123,71,104,161
121,64,106,173
119,59,108,185
116,56,111,197
114,54,115,209
114,53,119,222
115,53,124,234
118,53,128,244
123,53,131,254
129,55,134,255
135,61,138,255
139,73,140,255
140,95,141,255
141,127,141,255
142,163,139,255
138,192,137,255
135,209,135,255
133,213,131,255
132,207,127,255
131,197,123,255
131,185,120,255
131,174,117,255
131,164,115,255
130,155,112,255
127,146,111,255
122,137,110,255
128,127,109,255
171,114,109,255
230,101,109,255
234,90,109,255
147,84,110,255
122,85,110,255
127,92,110,255
127,100,111,255
126,105,111,255
126,107,112,255
126,107,112,255
126,106,113,255
126,105,113,255
126,103,113,255
126,101,113,255
126,97,112,255
125,90,112,255
125,83,113,255
123,74,113,255
122,67,114,255
120,62,115,255
117,58,117,255
115,55,121,255
114,54,125,255
115,53,129,255
117,52,134,255
121,52,138,255
127,53,142,255
134,56,145,255
138,63,146,255
140,79,147,255
141,105,147,255
142,138,146,255
140,171,144,255
136,194,141,255
133,205,138,255
132,203,135,255
131,195,131,255
131,184,128,255
131,172,126,255
131,162,123,255
131,152,121,255
129,143,119,255
123,134,118,255
122,123,118,255
156,111,117,255
217,98,117,255
233,85,117,254
162,77,117,253
123,76,118,250
122,81,119,248
127,90,119,245
127,96,119,242
126,99,119,239
126,100,120,236
126,99,119,233
126,99,119,230
126,97,119,226
126,95,118,222
126,92,118,217
126,87,118,212
125,79,118,206
124,71,118,200
123,65,119,193
121,59,120,186
118,55,122,180
115,52,125,173
114,50,128,167
115,48,131,160
116,47,134,153
120,47,138,146
125,48,142,139
132,50,145,131
137,55,148,125
139,69,150,118
140,93,151,112
142,126,150,106
140,161,149,100
137,188,146,94
134,201,143,88
132,202,139,82
131,195,135,77
131,183,132,71
131,171,128,67
131,161,125,62
131,151,121,58
129,142,119,54
124,133,116,51
122,122,115,49
146,111,113,46
203,97,112,44
229,84,112,42
174,73,112,40
124,69,112,38
120,73,112,37
127,82,113,35
126,89,114,34
126,93,115,32
126,95,115,31
126,95,115,29
125,93,116,27
126,92,116,24
125,91,116,22
125,88,116,19
125,83,115,15
124,77,115,12
123,69,115,9
121,62,115,6
119,57,116,3
117,52,117,1
114,49,119,0
112,47,122,0
112,45,126,0
114,44,130,0
117,44,134,0
123,45,137,0
130,46,141,0
136,51,143,0
140,62,145,0
141,82,145,0
142,112,145,0
143,145,143,0
138,175,141,0
135,193,138,0
133,198,134,0
132,194,130,0
132,184,126,0
132,173,122,0
132,162,118,0
132,151,115,0
131,142,113,0
127,133,111,0
123,123,109,0
137,113,108,0
187,100,107,0
231,87,106,0
194,75,106,0
133,69,106,0
122,71,106,0
127,78,106,0
127,87,107,0
127,93,108,0
127,95,108,0
127,96,109,0
127,96,109,0
127,95,108,0
127,95,108,0
127,93,108,0
126,89,107,0
126,82,107,0
125,75,107,0
124,67,108,0
122,60,109,0
120,55,110,0
117,51,112,0
116,49,115,0
115,47,118,0
116,47,121,0
119,47,125,0
122,47,129,0
128,48,132,0
135,52,135,0
139,61,138,0
141,80,140,0
141,109,140,0
142,143,139,0
140,175,138,0
137,195,135,1
134,203,132,3
132,200,129,7
132,191,126,11
132,179,122,16
132,167,118,20
131,157,115,25
131,147,112,29
128,138,110,33
123,128,108,37
122,117,106,42
155,105,106,46
214,91,105,50
230,79,105,55
160,71,106,59
122,71,106,64
125,78,106,68
127,86,107,72
126,92,107,75
126,95,107,79
126,94,108,81
126,93,108,84
125,92,109,86
125,91,109,87
125,89,109,88
125,87,109,89
125,81,109,89
124,74,109,89
123,66,109,89
121,59,110,88
119,54,111,86
116,50,113,85
113,47,115,82
112,45,118,79
112,43,122,76
114,43,126,72
118,43,130,68
124,44,133,64
131,46,136,60
137,52,139,56
140,65,140,53
141,89,141,49
142,121,141,45
141,155,139,42
138,182,137,38
135,196,134,34
133,198,131,30
132,191,127,27
132,181,123,24
132,170,119,21
132,159,116,18
132,149,113,15
130,141,111,12
126,132,109,9
123,122,108,7
142,111,107,4
198,99,106,2
233,86,106,0
184,75,106,0
128,71,106,0
122,74,107,0
128,82,107,0
127,90,108,0
127,95,108,0
127,96,108,0
127,96,108,0
127,96,108,0
127,95,108,0
127,94,108,0
126,92,108,0
126,88,107,0
125,81,107,0
125,73,108,1
123,66,108,3
121,60,110,6
119,55,112,8
116,51,114,12
115,48,117,15
115,47,120,18
116,46,124,21
119,46,128,24
123,46,133,27
129,48,136,31
136,53,139,35
140,65,141,39
141,85,142,43
142,115,142,47
142,149,141,51
139,179,139,55
136,197,137,59
134,203,134,63
132,199,131,67
132,189,127,72
132,177,123,77
132,166,120,81
132,156,117,86
131,147,114,91
128,138,111,95
123,128,109,100
123,117,108,104
166,105,107,107
222,91,106,111
229,79,106,114
147,73,106,117
120,73,107,120
126,79,107,123
127,87,108,126
126,92,109,128
126,94,109,130
126,94,109,132
126,93,109,134
126,93,109,135
126,91,109,136
126,89,109,136
125,86,109,136
125,80,109,136
124,73,109,134
123,65,109,133
121,59,110,131
119,53,111,130
116,49,113,127
113,46,116,125
112,44,119,122
112,43,123,119
115,43,127,115
119,43,131,111
125,44,135,107
132,47,137,103
138,54,139,99
140,69,141,95
141,96,141,90
142,129,140,86
141,163,139,81
137,187,137,76
134,198,133,70
133,197,130,65
132,190,126,60
132,179,122,55
132,168,118,51
132,157,115,46
131,148,112,43
130,139,109,39
124,131,107,36
122,121,105,32
151,109,104,29
211,96,104,26
231,83,104,24
168,72,104,21
124,69,105,19
122,73,106,17
127,82,106,16
127,91,107,14
127,95,107,13
127,96,108,12
127,96,108,12
127,96,108,12
126,95,108,12
126,94,108,12
126,91,108,12
126,86,108,12
125,79,108,13
124,71,109,14
123,64,109,15
121,58,110,16
118,53,112,18
116,50,114,19
114,48,117,21
115,47,121,23
116,46,125,25
119,46,129,27
124,46,133,29
131,49,137,32
136,55,139,35
139,68,141,38
140,91,142,41
141,124,142,45
142,158,141,49
139,185,139,53
135,200,136,57
133,203,133,61
133,197,130,64
133,186,126,68
132,175,122,72
132,164,118,77
132,154,115,81
131,145,112,86
127,136,109,90
122,126,108,94
133,115,107,98
179,102,106,102
230,89,106,106
202,78,106,110
138,73,107,114
121,75,107,118
126,83,108,121
127,90,108,125
126,95,108,129
126,96,109,132
126,95,109,135
126,94,109,138
126,93,109,140
126,91,109,142
126,88,109,144
126,84,109,146
125,78,109,147
124,71,109,148
123,64,110,148
121,57,111,148
119,52,113,148
115,49,115,148
113,46,118,147
112,44,121,146
113,43,125,144
116,42,129,142
120,43,132,139
126,44,136,136
133,48,138,132
138,57,141,128
140,75,142,124
141,103,143,120
142,136,142,116
140,167,140,113
136,189,138,108
134,197,134,104
132,196,130,99
132,187,125,95
132,176,122,90
132,165,118,86
132,155,115,82
131,145,112,78
129,137,109,74
123,127,107,70
122,117,106,66
159,105,105,62
218,92,105,58
230,79,105,54
155,70,105,51
121,68,106,47
126,73,107,44
127,82,108,41
127,89,108,39
127,93,109,36
127,95,109,34
127,95,109,32
127,94,109,30
127,93,109,28
127,92,109,27
126,88,108,25
126,83,108,24
125,75,108,23
124,68,109,23
123,61,110,22
121,56,112,22
118,52,114,22
116,49,116,23
114,47,119,23
115,46,123,24
116,45,126,25
120,45,130,26
125,46,133,28
132,49,136,29
137,55,139,30
140,69,140,33
141,95,140,35
142,128,140,38
142,163,139,40
138,189,137,43
135,201,134,46
133,202,131,49
132,195,127,52
132,184,123,56
132,173,119,60
132,162,116,65
132,152,114,70
131,143,111,76
127,134,109,81
122,124,108,87
134,112,107,94
183,99,107,99
232,86,107,105
201,76,107,110
136,72,108,115
122,75,108,121
127,83,108,126
126,91,108,132
126,95,108,137
126,96,109,142
126,96,109,146
126,95,110,150
126,94,110,154
126,93,110,157
126,90,110,161
125,86,110,163
125,79,110,165
124,72,110,167
123,64,111,168
121,57,112,168
119,52,114,169
116,48,116,168
113,45,118,168
112,43,121,167
113,43,125,166
116,42,128,164
120,43,132,162
127,45,136,159
134,49,139,157
138,58,142,154
140,77,143,151
141,106,143,149
142,141,142,146
140,172,140,143
136,193,137,140
133,201,134,137
132,199,130,134
131,190,127,131
131,179,124,127
131,168,120,124
132,158,117,121
131,149,114,118
128,141,112,115
123,132,110,113
121,123,109,111
158,111,108,109
219,98,107,108
234,85,107,107
160,75,107,106
122,73,108,105
126,78,108,105
127,86,109,105
127,94,110,105
126,99,110,106
126,101,111,107
126,101,111,109
126,100,111,111
126,99,111,114
126,98,111,117
126,94,111,121
125,88,110,125
125,81,110,130
124,73,111,134
122,65,111,138
120,59,113,143
118,55,115,148
115,53,117,154
114,51,121,160
114,51,124,166
116,50,129,172
119,50,133,178
125,51,137,184
131,54,141,191
137,61,143,198
140,78,145,205
141,106,146,213
142,141,146,221
141,175,144,230
137,200,142,239
134,211,139,247
132,211,135,255
131,203,131,255
131,191,127,255
131,179,123,255
131,169,119,255
131,159,117,255
130,151,115,255
126,142,113,255
121,133,112,255
136,122,111,255
190,109,111,255
236,96,110,255
198,85,111,255
135,81,112,255
123,85,112,255
127,93,113,255
126,100,113,255
126,104,114,255
126,105,114,255
126,105,114,255
126,104,114,255
126,103,115,255
126,101,115,255
125,99,115,255
125,94,115,255
124,87,115,255
124,79,116,255
123,71,117,255
121,64,119,255
119,59,120,255
116,55,123,255
114,53,125,255
114,51,128,255
115,51,132,255
118,51,136,255
122,51,141,255
128,51,145,255
135,55,148,255
139,65,151,255
140,84,152,255
141,114,152,255
142,150,152,255
139,181,150,255
135,201,147,255
133,207,144,255
132,203,141,255
131,193,138,255
131,181,134,255
131,169,131,255
131,159,128,255
130,149,125,255
127,140,123,255
122,131,122,255
128,120,121,255
168,108,120,255
227,94,120,255
234,82,120,255
149,74,120,255
121,74,120,255
126,80,120,255
127,89,121,255
126,95,121,254
126,98,122,253
126,99,122,250
126,98,122,248
126,97,122,244
126,95,122,240
126,93,122,236
125,89,122,232
125,83,121,228
124,75,121,223
123,68,121,218
122,61,121,213
119,56,122,207
116,52,124,201
114,49,126,194
113,48,129,187
114,47,133,180
116,46,137,172
120,45,142,164
125,46,146,156
132,49,149,149
137,57,151,141
139,72,153,135
140,97,154,128
141,130,153,121
139,163,151,114
135,187,149,108
133,199,145,101
131,199,141,95
131,191,137,90
131,180,133,85
130,168,129,80
130,157,125,75
130,147,123,71
128,138,120,67
123,128,118,63
121,118,117,59
152,106,116,56
211,93,115,53
228,79,115,50
163,70,115,47
121,67,115,44
121,72,116,42
126,80,116,40
125,87,117,38
125,91,117,35
125,92,118,33
125,92,118,30
125,91,118,28
125,90,118,26
125,89,118,24
125,85,118,21
124,80,118,19
124,73,118,16
123,66,118,13
121,59,119,10
119,53,119,6
116,49,120,3
114,46,122,1
112,44,124,0
112,43,128,0
114,42,131,0
118,42,135,0
123,43,139,0
130,45,142,0
136,50,145,0
140,63,147,0
141,86,148,0
142,118,147,0
143,152,146,0
138,179,144,0
135,194,141,0
133,197,138,0
132,192,134,0
132,182,130,0
132,171,126,0
132,160,122,0
132,150,118,0
131,141,115,0
127,132,112,0
122,122,110,0
137,111,108,0
188,99,108,0
230,85,107,0
192,73,107,0
132,67,107,0
122,69,107,0
127,78,107,0
127,87,107,0
127,94,107,0
127,96,107,0
127,96,107,0
127,95,107,0
127,94,108,0
127,93,108,0
127,90,109,0
126,86,109,0
126,79,109,0
125,71,110,0
124,64,110,0
122,57,111,0
120,52,113,0
117,48,115,0
115,46,118,0
115,44,121,3
116,43,125,6
118,43,129,11
123,43,132,16
128,45,135,20
135,50,137,25
139,60,139,29
141,80,141,33
141,110,142,36
142,145,141,40
140,176,140,44
136,195,138,47
134,202,135,51
132,199,131,54
132,189,128,57
132,178,124,60
132,167,121,62
132,157,118,64
131,147,116,66
129,139,113,68
123,129,111,70
122,118,110,72
155,106,109,73
215,92,108,75
232,80,108,76
161,71,108,78
122,70,108,79
125,76,108,80
126,84,109,81
126,90,109,82
126,93,109,84
125,93,110,85
125,92,110,85
125,91,110,86
125,90,110,86
125,88,110,86
125,85,110,86
124,80,110,86
124,73,110,85
122,65,111,85
121,59,111,83
119,53,112,82
116,49,114,79
113,45,116,77
112,43,119,75
112,41,123,72
113,41,127,69
117,41,132,67
123,41,136,63
130,44,140,60
136,50,142,56
139,64,144,52
140,87,144,48
142,119,144,43
141,153,143,39
137,180,141,34
134,194,138,30
132,197,134,26
131,191,131,22
131,181,127,18
132,170,123,14
132,159,120,11
132,150,117,7
130,141,114,3
126,132,112,1
122,123,110,0
140,112,109,0
195,99,108,0
233,86,108,0
187,75,108,0
129,69,108,0
121,72,108,0
127,80,109,0
127,88,109,0
127,94,110,0
127,97,110,0
127,97,110,0
127,97,111,0
127,97,111,0
126,95,112,0
126,93,112,0
126,89,112,0
125,82,113,0
124,75,113,0
123,67,113,3
121,61,113,6
119,55,114,9
116,52,116,13
115,50,118,19
114,49,122,24
115,48,125,30
118,48,128,37
123,49,132,44
129,51,136,52
135,55,140,61
139,67,142,70
141,89,144,78
141,121,144,86
142,158,143,95
140,189,141,103
136,207,139,113
134,212,136,124
132,207,132,135
131,197,129,146
131,184,126,157
131,173,122,168
131,162,119,179
131,153,117,189
128,145,114,200
123,135,112,212
121,125,110,224
159,113,110,236
222,100,109,246
237,87,109,255
161,79,110,255
123,79,110,255
126,86,111,255
127,95,110,255
126,101,110,255
126,103,109,255
126,104,109,255
126,103,110,255
126,103,110,255
126,101,110,255
126,99,110,255
125,95,109,255
125,89,109,255
124,81,110,255
123,73,110,255
121,66,110,255
119,60,112,255
117,56,113,255
114,54,116,255
113,52,120,255
114,51,124,255
116,51,128,255
119,51,133,255
125,52,137,255
132,54,140,255
137,62,143,255
139,78,144,255
140,105,145,255
141,139,145,255
140,174,144,255
136,199,142,255
134,211,139,255
131,210,136,255
130,201,133,255
130,189,129,255
130,177,126,255
130,166,123,255
130,156,120,255
129,147,117,255
124,138,115,255
122,128,114,255
144,117,114,255
203,104,114,255
234,91,115,255
181,81,115,255
127,78,115,255
121,82,116,255
127,90,116,255
126,97,117,255
126,101,117,255
126,103,118,255
126,102,119,255
126,101,119,255
126,99,119,255
126,97,119,255
125,94,119,255
125,89,119,255
124,81,118,255
123,74,118,255
122,66,118,255
120,60,119,255
118,55,121,255
115,53,123,255
114,51,126,255
113,49,129,255
115,49,132,255
118,48,136,252
123,48,140,248
129,49,144,240
135,53,147,233
138,64,149,225
139,84,151,217
141,113,151,210
141,147,149,203
137,177,147,195
133,195,144,187
131,200,141,179
130,196,138,171
130,186,134,163
130,175,130,155
130,163,127,148
130,153,123,141
129,143,120,134
125,133,118,128
121,123,117,123
137,112,116,118
189,99,116,112
230,85,116,107
188,73,116,103
129,67,116,98
120,68,116,94
126,75,117,89
125,84,117,86
125,89,117,82
125,92,117,78
125,92,117,74
125,91,117,69
125,91,116,65
125,89,116,60
125,87,116,55
125,83,116,49
124,76,116,44
123,69,116,39
122,61,116,34
120,55,117,29
117,51,117,24
114,47,119,18
112,45,121,12
112,43,124,6
113,42,127,0
116,41,131,0
121,41,134,0
128,43,138,0
135,46,140,0
139,56,142,0
140,74,144,0
141,103,144,0
142,138,144,0
139,169,142,0
135,190,140,0
133,197,137,0
132,194,133,0
131,185,129,0
131,173,124,0
131,162,120,0
131,152,116,0
131,143,113,0
128,133,110,0
122,124,108,0
130,113,107,0
172,101,106,0
226,88,105,0
228,75,104,0
142,67,104,0
121,66,104,0
127,72,104,0
127,81,105,0
127,88,105,0
127,91,105,0
127,93,105,0
127,92,105,0
127,92,105,0
127,91,105,0
127,90,105,0
126,86,105,0
126,80,105,0
125,73,105,0
124,65,105,0
122,58,106,0
120,53,107,0
118,49,108,0
115,47,110,0
115,45,112,0
115,45,115,0
117,45,119,0
121,45,123,0
127,45,127,0
133,49,131,0
139,56,135,0
141,72,137,0
141,98,138,0
142,131,138,0
141,164,137,0
138,187,134,0
135,199,132,0
133,199,129,0
132,192,125,0
132,181,121,0
132,170,117,0
132,159,113,0
132,149,110,0
130,140,108,0
126,131,105,2
123,121,104,4
144,109,103,9
202,95,103,15
232,82,103,22
180,73,104,28
127,70,104,35
121,75,105,43
127,83,106,50
126,89,106,58
126,93,107,65
126,93,107,72
126,92,107,78
126,91,107,85
126,89,107,91
126,88,108,97
126,85,108,102
125,81,108,107
124,75,108,112
123,67,108,116
122,60,109,119
120,53,109,122
117,49,111,123
114,45,113,125
112,43,116,125
112,41,120,125
113,40,123,124
117,39,127,122
122,40,131,119
129,43,135,117
135,48,137,113
139,59,139,110
141,80,140,107
142,111,141,103
142,145,140,98
138,175,138,94
135,192,135,88
133,197,132,83
132,193,128,78
132,183,124,73
132,171,120,68
132,160,116,64
132,150,114,59
131,141,111,54
128,132,109,49
123,123,108,44
134,112,106,39
182,100,106,34
232,86,106,29
202,73,106,25
137,66,106,21
122,66,107,17
127,73,107,14
128,83,107,11
127,90,107,8
127,93,107,6
127,94,107,3
127,93,107,1
127,93,107,0
127,92,107,0
127,91,107,0
127,87,107,0
126,81,107,0
125,73,107,0
124,65,108,0
122,59,109,0
120,54,110,0
117,51,111,0
115,48,114,0
115,47,117,0
115,46,120,0
118,46,124,0
122,46,128,2
128,47,132,4
135,51,136,7
139,61,138,10
141,80,140,15
142,109,140,19
143,145,140,24
141,178,138,28
137,200,136,34
134,209,134,39
132,207,130,46
132,197,126,54
132,186,122,63
132,174,119,73
132,163,115,85
132,154,112,96
130,145,109,109
124,137,107,122
122,127,106,135
149,115,105,147
211,102,105,159
232,89,104,172
173,80,105,185
125,77,105,198
122,82,105,212
127,90,106,226
127,97,106,236
127,101,106,247
126,103,107,251
126,103,107,255
126,102,107,255
126,101,108,255
126,99,108,255
126,95,108,255
125,90,108,255
125,83,108,255
124,74,108,255
122,67,109,255
120,61,111,255
118,56,113,255
116,53,115,255
114,51,119,255
114,51,123,255
116,50,127,255
119,50,130,255
124,51,133,255
131,53,136,255
137,59,139,255
140,73,141,255
141,97,142,255
142,131,143,255
141,166,142,255
138,194,141,255
135,209,138,255
132,211,135,255
131,205,131,255
131,194,128,255
131,182,124,255
131,170,122,255
131,160,119,255
130,151,117,255
126,143,115,255
121,133,114,255
137,123,113,255
193,110,113,255
238,97,113,255
196,85,113,255
133,79,114,255
122,81,115,255
127,87,116,255
126,95,116,255
126,101,116,255
126,103,117,255
126,103,117,255
126,103,117,255
126,101,117,255
126,100,116,255
126,97,116,255
125,92,115,255
125,85,115,255
124,77,115,255
122,69,115,255
121,62,116,255
118,57,117,255
116,53,119,255
114,51,122,255
114,50,125,255
115,49,129,255
117,49,134,255
122,49,138,255
128,50,142,255
135,53,146,255
138,61,148,255
140,79,150,255
141,108,150,255
141,143,150,255
138,175,148,254
135,196,146,252
132,203,143,245
131,200,140,239
131,190,136,233
131,178,133,227
131,167,129,221
131,157,126,215
130,147,124,209
127,139,121,203
122,129,119,198
132,118,117,193
177,105,116,188
229,91,116,183
204,79,115,179
140,71,115,174
121,71,116,169
126,78,117,164
127,87,117,160
126,93,118,155
126,97,119,151
125,97,119,146
125,97,120,142
125,95,120,138
125,94,120,134
125,91,120,130
125,87,120,126
124,81,119,121
123,73,119,117
122,65,119,112
120,59,120,108
118,53,120,104
115,49,122,99
112,47,124,95
112,45,127,90
112,43,130,86
115,42,133,80
119,42,136,75
126,43,140,69
133,46,143,63
137,54,146,58
139,70,148,52
140,97,149,47
141,131,148,42
138,163,147,38
135,186,145,33
132,197,141,29
131,195,137,24
130,187,134,20
130,176,130,16
131,164,127,12
131,154,123,8
130,144,120,5
128,135,117,2
123,125,115,1
122,115,113,0
162,103,112,0
220,91,111,0
229,78,111,0
150,69,111,0
120,67,111,0
126,71,111,0
127,79,112,0
126,85,112,0
126,90,112,0
126,91,112,0
126,92,112,0
126,91,113,0
126,91,113,0
126,89,113,0
126,85,112,0
125,79,112,0
124,72,112,0
123,65,112,0
122,58,113,0
119,52,113,0
117,48,115,0
114,45,116,0
113,43,119,0
114,42,123,0
116,42,126,0
120,42,130,0
125,43,134,0
132,46,137,0
138,53,140,0
140,68,141,0
141,93,142,0
143,125,141,0
141,159,140,0
138,184,138,0
135,197,136,0
133,199,132,0
132,193,129,0
132,182,125,0
132,171,121,0
132,161,117,0
132,151,114,0
131,141,110,0
126,132,108,0
123,122,106,0
142,111,105,0
198,98,104,0
233,85,103,0
185,74,103,0
129,69,103,0
122,72,103,0
128,81,104,0
127,89,104,0
127,94,104,0
127,96,105,0
126,96,105,2
126,95,105,5
126,94,106,11
126,93,106,17
126,89,106,23
125,85,106,29
125,78,106,36
124,70,106,42
122,63,106,48
120,56,107,54
118,51,108,59
115,48,110,65
113,46,113,69
113,44,116,74
114,43,119,77
117,43,123,80
122,43,127,82
128,43,131,84
135,48,135,86
138,59,137,87
139,80,139,88
141,112,140,89
141,147,139,89
138,177,138,89
135,195,136,88
132,199,133,88
131,194,131,87
131,183,127,86
130,171,123,84
130,160,119,82
131,150,116,80
130,141,112,78
127,133,110,76
122,123,107,74
130,112,106,72
173,100,105,70
226,87,105,68
228,74,105,66
141,67,106,63
120,67,106,61
126,73,107,58
126,82,107,56
126,88,108,54
126,91,108,51
126,92,108,49
126,91,108,46
126,90,108,44
126,89,108,41
126,87,108,38
125,83,108,35
125,77,108,31
124,70,109,28
122,63,109,25
121,56,109,22
119,51,110,19
116,47,112,17
114,45,114,14
113,43,117,11
113,42,121,9
116,42,125,6
120,43,129,4
126,44,133,1
133,47,136,0
138,56,138,0
141,73,140,0
142,101,140,0
143,135,140,0
142,167,139,0
138,191,137,0
135,201,134,0
133,201,131,0
132,194,127,0
132,183,123,0
132,173,119,0
132,163,116,0
132,153,114,0
130,145,111,0
125,136,109,0
122,126,106,0
148,115,105,0
208,102,103,2
233,89,103,4
176,79,103,8
126,75,104,12
123,79,104,17
128,86,105,23
127,94,105,30
127,99,106,38
127,101,106,47
127,102,106,57
126,102,106,68
126,101,106,79
126,99,106,90
126,95,106,101
126,90,106,112
125,83,106,123
124,75,107,135
123,67,108,147
121,61,109,160
119,56,111,173
116,53,113,185
114,51,116,196
114,50,119,207
116,50,123,217
119,50,128,227
124,50,132,237
130,53,136,246
136,59,140,255
139,73,142,255
140,98,143,255
141,132,144,255
142,167,143,255
138,195,142,255
135,210,140,255
133,212,137,255
131,205,133,255
131,194,130,255
131,182,126,255
131,171,122,255
131,161,118,255
130,152,115,255
126,143,113,255
121,134,111,255
131,123,110,255
181,111,109,255
236,97,109,255
210,86,110,255
142,80,110,255
122,83,111,255
127,90,112,255
127,98,112,255
126,103,112,255
126,105,113,255
126,105,113,255
125,104,114,255
125,103,114,255
125,102,115,255
125,99,115,255
125,95,115,255
124,88,115,255
124,80,115,255
123,72,115,255
121,65,115,255
119,60,116,255
116,56,118,255
113,53,121,255
113,52,125,255
114,51,129,255
116,50,134,255
120,50,139,255
127,51,143,255
133,54,145,255
138,62,148,255
139,80,149,255
140,109,150,255
141,144,149,255
138,177,148,255
135,198,145,255
133,206,143,255
131,203,139,255
131,193,136,255
131,181,132,255
130,169,129,255
131,159,126,255
130,150,123,255
127,141,121,255
122,132,119,255
122,122,118,255
163,109,117,255
222,96,116,255
232,84,116,255
153,76,116,255
121,75,117,255
126,80,118,255
127,88,118,254
126,94,119,252
126,97,119,249
126,99,119,247
126,99,120,243
125,97,120,240
125,96,120,236
125,94,120,233
125,90,120,229
124,85,120,225
124,77,120,220
123,69,120,214
121,62,120,208
119,56,120,202
116,52,122,194
113,49,123,187
112,48,126,179
113,47,129,171
115,46,133,163
119,45,137,156
124,46,141,148
131,48,145,141
136,55,147,134
138,69,150,126
139,94,151,119
141,127,151,111
139,160,150,105
136,185,149,98
133,197,146,92
131,198,143,86
130,191,139,81
130,180,135,75
130,169,130,70
130,157,126,65
130,147,123,60
129,138,120,56
124,129,117,51
122,119,116,47
150,107,115,44
208,95,114,41
228,81,114,38
166,71,115,35
121,67,115,32
120,70,115,29
127,77,115,27
126,85,115,24
126,90,116,22
126,92,116,19
125,93,116,17
125,92,117,15
125,91,117,12
125,90,117,10
125,87,116,7
125,81,116,4
124,74,115,2
123,66,115,0
122,59,115,0
119,53,116,0
117,49,117,0
114,46,118,0
113,44,120,0
112,43,124,0
115,42,128,0
118,41,131,0
124,42,135,0
130,44,139,0
136,49,142,0
140,61,144,0
141,83,146,0
142,115,146,0
143,149,145,0
139,178,142,0
135,195,139,0
133,198,136,0
132,193,132,0
132,183,128,0
132,173,124,0
132,162,121,0
132,152,118,0
131,143,114,0
127,133,111,0
123,124,108,0
136,113,106,0
187,100,105,0
232,87,104,0
196,75,104,0
134,70,104,0
123,72,104,0
128,80,105,0
127,89,105,0
127,95,105,0
127,96,106,0
127,96,106,0
127,95,107,0
127,94,107,0
127,93,107,0
127,91,107,0
127,86,107,0
126,80,107,0
125,73,107,0
123,65,107,0
122,58,107,0
119,53,108,2
116,49,109,4
114,47,112,9
114,45,115,15
115,44,119,20
117,44,123,25
122,44,127,29
128,46,131,33
134,50,134,37
138,60,137,41
140,79,139,44
141,108,140,48
142,143,140,50
140,173,139,53
136,193,137,55
133,200,134,57
132,197,130,59
131,187,127,61
131,175,122,62
131,164,118,63
131,153,115,64
131,144,111,65
128,135,109,66
123,125,107,66
122,115,106,66
159,103,105,66
219,89,104,66
231,77,104,66
156,69,104,66
121,69,104,66
125,74,105,65
126,83,105,64
126,89,106,63
126,91,107,61
126,92,108,59
126,91,108,57
125,91,109,55
125,90,109,54
125,88,109,51
125,84,109,49
125,79,108,47
124,71,108,44
123,64,108,41
121,58,108,38
119,52,109,35
116,48,111,32
113,45,113,29
112,43,116,27
112,42,119,24
114,41,123,21
118,41,126,18
124,42,130,16
131,45,134,13
137,51,138,10
139,66,140,7
141,91,142,5
142,124,142,2
141,157,141,0
137,183,139,0
134,196,136,0
133,198,133,0
132,191,129,0
132,180,126,0
132,169,122,0
132,158,118,0
132,148,115,0
130,139,112,0
126,130,110,0
123,120,109,0
143,109,108,0
199,97,107,0
230,85,107,0
181,75,106,0
127,71,106,0
121,74,106,0
128,81,105,0
127,89,105,0
127,93,105,0
127,95,106,0
127,95,106,0
127,95,107,0
127,95,107,0
127,94,107,0
127,92,107,0
126,87,107,0
126,80,107,0
124,72,107,0
123,65,108,0
121,58,109,1
119,53,110,2
116,50,112,5
114,47,115,8
114,46,118,11
116,45,122,15
118,45,126,18
123,46,130,22
129,47,133,25
135,52,137,29
139,63,139,32
140,83,141,36
141,114,142,39
142,149,142,43
139,179,141,47
136,197,139,51
134,202,136,55
132,198,133,59
132,189,129,63
132,177,125,67
132,166,121,71
132,156,118,75
131,147,115,79
129,137,113,84
123,128,111,88
123,117,109,92
164,104,108,96
222,91,108,100
233,79,107,104
153,72,107,108
122,73,108,111
126,80,108,114
127,88,108,116
127,94,108,119
126,97,109,121
126,97,109,124
126,95,109,126
126,94,109,128
126,93,109,129
126,91,110,130
126,87,110,131
125,82,110,132
124,75,110,132
123,67,111,132
122,60,111,131
119,55,112,131
116,50,114,129
114,47,116,128
113,45,119,126
113,43,122,125
115,42,125,123
119,42,129,121
125,43,134,119
132,46,138,116
137,53,141,114
139,69,143,111
141,95,144,108
142,128,144,105
141,161,143,103
137,185,141,100
134,197,138,97
132,197,135,95
132,189,132,92
132,178,128,89
131,167,124,86
131,156,121,82
132,146,118,79
130,138,115,76
125,129,113,74
122,119,112,71
148,108,111,68
206,95,110,66
229,81,109,63
172,71,109,60
124,66,109,57
121,69,110,55
127,77,110,52
127,85,110,49
127,91,111,47
127,93,111,44
127,93,112,42
127,93,112,39
127,92,113,36
126,90,113,34
126,87,113,31
126,83,113,28
126,76,113,25
124,69,114,23
123,62,114,20
121,56,115,18
119,52,115,16
116,49,117,14
114,47,119,12
114,46,122,11
116,45,125,9
119,46,129,8
124,46,133,7
131,49,137,6
137,54,140,5
141,67,142,4
142,89,144,5
143,122,144,5
143,157,144,5
139,186,143,6
136,203,141,8
134,207,137,10
133,203,134,13
132,193,130,16
132,181,126,20
132,170,122,23
132,161,118,27
131,151,116,31
128,143,113,37
122,134,111,43
132,124,110,50
177,111,109,58
232,98,108,66
210,85,108,74
143,78,109,82
122,79,109,90
127,86,109,101
127,95,110,112
127,101,110,125
127,104,110,138
127,104,110,153
127,104,110,168
126,103,111,183
126,101,111,199
126,99,112,212
126,95,112,225
125,88,112,236
124,80,112,247
123,72,112,251
122,65,113,255
119,60,114,255
117,57,116,255
115,54,117,255
114,53,120,255
115,52,124,255
117,51,128,255
121,51,132,255
127,53,136,255
134,57,140,255
139,66,143,255
140,85,145,255
141,115,146,255
142,151,146,255
140,183,144,255
136,205,143,255
134,213,140,255
132,210,137,255
131,200,134,255
131,189,130,255
131,177,126,255
131,167,123,255
131,157,120,255
129,149,117,255
123,139,116,255
121,129,115,255
157,118,114,255
221,105,114,255
238,93,114,255
164,84,114,255
123,82,114,255
123,87,115,255
127,95,115,255
126,102,116,255
126,105,117,255
126,107,118,255
126,106,118,255
126,105,119,255
126,103,119,255
126,101,118,255
125,97,118,255
125,90,117,255
125,83,117,255
124,75,116,255
122,67,116,255
120,61,117,255
117,57,118,255
115,55,120,255
114,53,123,255
114,52,127,255
116,51,131,255
119,51,135,255
125,51,139,255
132,53,142,255
137,59,145,255
139,73,147,255
140,96,149,255
142,128,150,255
140,161,149,255
136,188,148,255
133,202,145,255
132,204,142,255
131,198,139,255
131,187,135,255
131,175,132,255
131,164,129,253
131,154,127,250
129,145,124,247
124,135,122,243
122,125,121,239
150,113,120,235
209,100,119,230
231,87,118,226
172,77,118,222
124,73,118,218
121,77,119,214
127,85,119,210
127,93,120,206
127,98,120,202
126,100,120,198
126,100,120,194
126,99,120,189
126,97,120,185
126,95,120,180
125,92,120,176
125,87,120,171
125,79,119,167
124,72,119,162
122,65,119,156
120,59,120,150
118,55,121,144
115,51,122,138
114,49,125,131
114,47,128,124
115,47,131,117
119,46,135,110
124,47,138,104
130,49,142,98
136,53,145,92
138,65,147,86
139,87,148,80
141,119,149,74
140,154,148,68
136,183,147,63
134,199,145,58
131,201,142,54
131,195,138,50
131,185,135,47
131,173,131,43
131,161,127,40
130,151,123,37
129,143,120,35
125,134,117,32
122,124,115,30
141,113,113,28
196,100,112,26
229,86,111,25
180,74,111,24
125,68,111,23
120,70,111,22
127,78,112,21
126,86,112,19
126,92,113,18
126,94,114,17
126,94,114,16
126,93,115,15
126,92,115,14
125,91,115,12
125,88,115,11
125,84,115,8
124,78,115,6
123,70,115,3
122,63,115,0
120,57,115,0
117,52,116,0
114,48,117,0
112,46,120,0
112,44,122,0
114,43,126,0
117,43,129,0
122,43,132,0
130,45,135,0
136,49,139,0
140,60,141,0
141,79,143,0
142,108,144,0
143,142,144,0
139,172,142,0
135,191,140,0
134,198,137,0
133,195,133,0
132,186,130,0
132,175,126,0
132,164,123,0
132,154,120,0
131,145,117,0
127,136,114,0
122,126,112,0
134,115,110,0
182,103,109,0
230,90,108,0
199,78,107,0
136,71,107,0
123,71,107,0
128,77,107,0
127,86,107,0
127,93,108,0
127,97,108,0
127,97,108,0
127,97,109,0
127,96,109,0
126,95,109,0
126,93,108,0
126,89,108,0
126,83,107,0
125,75,107,0
124,67,107,0
122,61,107,0
120,55,108,0
117,51,110,0
115,48,112,0
114,47,115,2
115,45,118,5
117,45,122,10
122,45,126,14
128,47,131,19
134,51,134,23
139,60,137,27
140,79,140,31
141,108,141,35
142,143,141,39
140,174,140,43
136,195,139,47
134,202,136,50
132,199,133,53
132,190,129,56
132,178,125,59
132,166,122,62
131,155,118,64
131,146,115,67
129,137,112,69
123,128,110,71
122,117,108,73
159,105,107,74
219,92,106,76
233,79,105,77
156,71,105,79
121,70,105,79
125,76,106,80
127,84,106,80
126,91,106,81
126,93,107,80
126,94,107,80
126,93,107,79
126,92,108,78
126,91,108,77
125,90,108,76
125,87,108,74
125,81,108,72
124,73,108,70
123,66,108,67
122,59,108,64
119,54,109,60
116,50,110,57
114,47,112,54
112,45,115,51
113,43,118,49
115,43,122,45
119,43,126,42
125,44,130,38
132,46,134,35
138,52,138,31
141,66,140,28
142,90,142,24
143,123,142,21
142,158,142,18
138,184,140,15
135,198,137,12
133,199,133,9
133,193,130,7
133,182,127,4
133,171,123,2
132,160,120,0
132,151,116,0
131,142,114,0
126,133,111,0
123,123,109,0
148,112,108,0
206,99,107,0
229,85,107,0
174,75,106,0
125,70,107,0
122,74,107,0
128,82,107,0
128,91,107,0
127,96,107,0
127,98,108,0
127,98,108,0
127,97,108,0
127,96,109,1
127,95,109,3
127,92,109,7
126,87,109,10
126,81,109,13
125,73,109,16
123,65,110,20
121,59,110,23
118,54,111,27
116,51,112,31
114,48,115,36
114,47,118,40
115,46,121,45
119,46,125,50
124,47,130,55
130,49,134,60
136,55,138,64
139,67,140,68
140,89,142,72
142,121,143,76
142,154,143,80
138,182,142,84
135,198,140,87
132,201,137,91
131,195,134,95
131,185,130,98
131,173,126,101
132,162,122,104
132,151,119,106
131,142,116,109
127,133,114,112
123,123,112,114
133,113,110,116
180,100,109,118
229,87,108,120
199,75,107,121
136,70,108,122
122,72,108,123
127,79,109,123
127,87,110,123
126,92,111,123
126,94,111,122
126,94,111,120
126,93,111,119
126,92,111,117
126,91,111,115
126,89,111,113
126,84,111,111
125,78,111,108
124,71,111,104
123,63,112,100
121,57,113,97
119,52,114,92
116,48,115,88
113,46,117,83
113,44,119,78
114,43,121,74
116,43,124,69
121,43,128,66
127,45,132,62
134,48,136,58
139,58,139,54
141,76,141,50
142,104,142,47
143,139,142,44
141,171,141,40
137,192,139,38
134,201,137,35
133,198,134,33
133,189,131,30
133,179,127,28
133,167,123,26
133,157,120,24
132,148,117,22
129,139,114,21
124,131,112,19
123,120,110,18
164,109,108,17
223,95,108,17
234,83,107,16
154,74,107,17
122,72,107,17
127,78,107,18
128,87,107,19
127,94,107,20
127,97,108,22
127,98,108,24
127,97,109,26
127,96,109,29
127,95,110,32
127,94,110,36
126,91,110,40
126,85,110,45
125,78,110,49
124,70,110,55
122,63,110,60
121,57,111,65
119,53,112,70
116,49,114,75
115,47,117,80
115,46,120,85
117,45,124,90
120,46,128,95
126,47,132,100
132,50,136,104
138,57,139,108
140,72,141,111
141,98,143,115
142,131,143,118
141,165,143,121
137,191,141,124
134,203,139,127
132,203,136,129
131,195,132,131
131,183,129,133
131,171,125,135
131,159,121,136
131,149,118,137
130,140,116,138
125,131,114,139
122,120,111,140
145,109,110,141
202,95,108,142
229,83,108,142
175,73,107,143
124,70,107,144
120,74,108,144
127,82,108,144
126,89,108,144
126,93,109,144
126,94,109,144
126,94,110,143
126,93,110,142
126,92,110,142
126,90,111,140
125,87,111,139
125,83,111,137
124,76,111,136
123,68,112,134
122,61,112,132
120,55,113,129
117,51,114,126
114,47,115,122
112,45,117,118
112,44,119,115
113,43,123,111
117,43,126,107
122,43,130,104
129,45,134,100
136,51,137,95
140,63,140,91
141,85,142,86
142,116,142,81
143,150,142,76
138,179,141,71
135,196,139,67
133,200,136,63
133,195,133,58
132,185,129,55
132,173,126,51
132,162,122,48
133,153,118,45
131,143,115,41
127,135,113,38
123,126,111,36
135,115,109,33
185,103,108,31
230,89,108,29
195,78,108,27
134,72,108,25
122,73,108,24
127,80,108,23
127,89,108,22
127,94,109,21
127,97,109,20
127,97,110,20
127,97,110,20
127,97,110,20
127,96,110,20
127,94,110,20
126,90,109,21
126,83,109,23
125,75,109,24
124,67,110,26
122,61,110,28
119,55,112,30
117,51,113,32
115,49,115,35
115,47,118,37
116,46,121,40
118,46,125,44
122,47,129,47
127,48,132,51
134,52,135,56
138,61,138,60
140,81,141,65
141,110,143,69
142,145,143,73
140,177,143,77
136,197,142,82
134,205,139,86
132,201,136,91
132,192,133,95
132,180,129,100
132,168,125,105
131,157,121,109
131,148,119,113
129,139,116,117
124,129,114,121
122,119,111,125
158,106,110,129
218,93,108,134
232,80,108,137
158,71,108,141
121,71,108,145
125,77,109,148
127,85,110,151
126,92,110,153
126,94,111,155
126,95,111,157
126,95,111,158
126,94,111,159
126,93,111,159
126,91,111,160
125,88,110,159
125,82,110,159
124,75,110,158
123,67,110,157
122,60,111,154
119,55,112,152
117,51,113,148
114,48,115,144
113,46,118,140
113,45,121,135
115,44,125,130
119,45,129,125
125,46,133,120
132,49,137,115
138,55,141,111
141,70,143,107
142,95,144,102
143,129,145,98
142,164,144,94
138,191,143,89
135,204,140,86
133,206,137,82
133,199,133,79
132,188,130,76
132,177,126,73
132,167,122,71
132,157,118,69
131,149,115,67
126,140,113,66
123,131,111,65
145,120,110,65
204,107,109,65
236,94,109,66
182,83,109,67
128,79,109,69
123,81,110,71
128,88,110,75
127,96,110,79
127,101,111,85
127,104,111,90
127,104,111,97
126,103,112,103
126,103,112,110
126,101,113,117
126,98,113,126
126,93,113,135
125,87,113,145
124,79,113,156
122,71,113,168
121,64,113,180
118,59,114,192
116,56,116,205
114,54,118,216
114,53,121,228
115,52,125,238
118,52,129,248
123,53,132,251
130,55,136,255
136,61,140,255
140,73,142,255
141,97,144,255
142,129,145,255
142,164,145,255
138,193,144,255
135,209,142,255
133,212,139,255
132,206,136,255
131,195,132,255
131,183,129,255
132,172,127,255
131,163,124,255
130,154,121,255
127,145,119,255
121,136,117,255
134,125,115,255
184,113,114,255
234,99,113,255
202,88,113,255
137,81,113,255
122,83,113,255
127,90,114,255
126,99,114,255
126,104,114,255
126,106,115,255
126,106,115,255
126,105,115,255
126,104,115,255
126,103,115,255
125,100,115,255
125,95,115,255
125,89,115,255
124,81,115,255
122,72,115,255
121,65,116,255
119,60,116,255
116,56,118,255
114,54,120,255
114,53,122,255
115,52,126,255
117,51,130,255
122,51,134,255
128,52,137,255
135,55,141,255
139,64,144,255
140,82,146,255
141,111,148,255
142,146,148,255
139,179,148,255
135,201,147,255
133,209,145,255
131,205,141,255
131,195,137,255
131,183,133,255
131,171,129,255
131,160,126,255
130,150,123,255
127,141,121,255
122,132,118,255
130,121,117,255
173,109,116,254
227,96,115,251
230,83,115,249
143,76,115,246
121,76,116,243
127,83,116,240
127,91,117,237
126,97,117,234
126,100,117,230
126,100,117,226
126,100,117,222
126,98,117,217
126,97,118,212
125,95,118,207
125,91,118,202
125,85,118,197
123,78,117,193
122,70,117,187
121,63,117,181
118,58,118,174
116,54,119,168
113,51,120,161
112,49,123,155
113,47,126,149
115,46,129,143
120,46,132,136
126,47,136,129
133,50,140,122
137,57,143,115
139,73,146,107
141,99,149,100
141,133,150,93
139,165,150,86
135,188,148,80
133,199,146,74
131,198,142,69
131,190,139,63
131,179,136,58
131,168,132,53
131,157,128,48
130,147,124,43
128,138,120,38
122,128,117,34
122,118,115,30
165,106,113,26
224,93,112,22
232,80,112,18
150,71,112,14
120,69,112,10
126,73,113,6
127,82,113,2
126,89,114,1
126,93,114,0
125,95,115,0
125,95,115,0
125,94,115,0
125,93,115,0
125,91,114,0
125,87,114,0
125,81,114,0
124,74,114,0
122,67,114,0
121,60,114,0
119,55,115,0
116,51,116,0
113,48,118,0
113,47,120,0
113,45,123,0
115,45,126,0
120,45,129,0
126,45,133,0
133,48,136,0
138,55,139,0
140,70,142,0
141,95,144,0
143,128,144,0
141,162,145,0
137,187,144,0
134,199,141,0
133,200,138,0
132,193,134,0
132,182,129,0
132,171,125,0
132,160,120,0
132,151,117,0
130,142,114,0
125,133,112,0
122,123,110,0
151,111,109,0
209,98,108,0
230,85,107,0
169,75,106,0
124,72,106,0
122,77,106,0
127,85,105,0
127,93,105,0
126,98,105,0
126,99,105,0
126,98,106,0
126,97,106,0
126,96,106,0
127,95,107,0
127,92,107,0
126,87,106,0
125,81,106,0
123,73,106,0
122,65,106,1
120,59,106,7
118,54,107,13
115,50,109,19
113,48,111,26
114,47,114,32
116,46,117,38
119,47,121,43
123,47,125,48
130,49,129,52
136,55,133,57
139,68,136,61
140,91,138,64
142,124,139,68
142,159,139,72
138,186,138,74
135,201,136,77
132,203,133,80
131,196,131,82
131,185,128,84
131,173,125,85
132,161,121,87
131,151,118,88
130,142,115,89
127,133,112,90
122,123,110,90
135,112,108,90
185,100,106,90
229,87,106,90
193,76,105,89
132,71,105,89
122,73,105,88
127,81,106,87
127,89,106,85
127,93,106,84
126,94,107,82
126,94,107,80
126,93,108,79
126,93,108,77
126,91,109,74
126,89,109,71
126,85,109,68
125,79,109,65
124,71,109,61
123,64,109,57
121,58,109,53
118,53,110,49
115,49,111,45
113,47,113,41
113,45,116,38
114,45,119,34
116,45,123,31
121,45,127,28
128,46,131,24
135,50,135,21
139,59,137,18
141,78,139,15
142,107,140,12
143,140,140,9
140,171,140,7
136,192,138,4
134,200,135,2
133,198,132,0
132,189,128,0
132,179,124,0
132,167,120,0
133,157,117,0
132,147,114,0
129,138,112,0
123,129,110,0
123,119,108,0
169,107,106,0
227,94,105,0
233,82,105,0
148,75,105,0
122,75,105,0
127,81,105,0
128,89,106,0
127,96,106,0
127,99,107,0
127,99,107,0
127,98,107,0
127,97,107,1
127,96,106,5
127,95,106,8
126,91,105,13
126,86,105,17
125,79,105,22
124,71,105,26
122,64,106,31
120,58,107,35
118,53,109,40
116,51,111,45
115,49,114,51
115,48,117,56
117,47,121,61
121,47,125,66
126,49,129,70
133,51,133,75
138,59,136,79
140,75,139,84
140,103,140,88
142,137,141,93
141,170,140,96
137,194,139,100
134,204,138,104
132,203,136,108
131,195,133,110
131,183,129,113
131,171,125,116
131,160,121,118
131,151,118,120
129,141,114,122
124,132,112,124
122,122,109,126
149,110,108,127
208,96,107,129
228,83,106,130
168,73,106,131
123,71,106,132
121,76,106,133
127,84,107,134
126,91,107,135
126,95,107,135
126,96,108,136
126,95,108,135
126,94,109,135
126,93,109,134
126,92,109,133
126,89,110,132
125,84,110,130
125,77,110,128
124,69,111,125
122,62,111,122
120,56,112,119
117,52,113,115
114,49,114,112
113,46,116,108
113,45,119,104
115,45,122,100
118,45,126,96
124,45,130,91
131,47,133,86
137,53,136,80
140,65,139,75
141,88,141,70
142,120,143,65
141,154,143,60
138,182,143,55
135,198,141,51
133,201,138,47
132,195,134,43
132,185,130,39
132,173,125,36
132,163,121,32
132,153,118,29
131,145,115,26
126,136,112,24
123,127,109,22
142,115,108,20
197,103,106,18
230,89,106,17
182,79,106,15
127,73,106,15
121,75,107,14
128,83,107,14
127,91,108,14
127,97,108,15
127,99,108,15
126,99,108,17
126,98,108,18
126,97,108,20
126,96,108,22
126,94,109,25
126,89,109,28
125,83,110,31
125,75,110,34
123,68,110,38
121,61,111,41
119,56,113,45
117,53,114,49
115,50,115,53
115,49,117,58
116,48,120,63
119,48,124,68
123,48,128,74
129,50,132,79
135,55,136,84
139,67,139,89
140,88,141,93
141,119,142,97
142,153,142,102
139,182,142,106
136,200,141,110
134,205,138,114
132,200,135,118
132,190,132,122
131,178,128,125
131,167,124,128
131,157,120,131
131,147,117,134
128,138,115,137
123,128,113,140
129,117,111,142
171,105,110,145
226,91,109,147
229,79,109,149
143,72,108,151
121,73,109,153
126,80,109,154
127,88,109,155
126,93,110,156
126,95,110,157
126,95,111,158
126,95,111,158
126,93,111,158
126,92,111,158
126,91,111,157
126,87,111,156
125,81,111,155
124,74,111,153
123,66,111,151
121,59,112,148
119,54,113,144
116,50,114,141
113,47,116,136
112,46,118,131
113,45,121,127
115,45,125,122
120,45,129,118
127,46,132,114
133,49,135,109
138,57,138,104
140,73,141,98
142,101,142,93
143,135,143,88
140,168,143,83
136,191,141,79
134,201,139,74
133,200,136,70
132,192,132,66
132,181,129,61
132,169,125,57
132,159,122,53
132,149,118,48
129,140,115,45
124,131,113,41
122,121,111,38
162,109,109,35
222,96,108,32
234,83,108,30
154,74,108,28
122,73,108,26
126,78,108,25
127,87,108,24
127,95,109,23
127,98,109,22
126,99,110,22
126,99,110,22
126,97,111,22
126,97,111,23
126,95,111,23
126,93,110,24
126,88,110,26
125,81,110,28
124,73,110,30
122,65,111,32
120,59,111,34
118,55,112,36
115,52,114,39
114,50,116,41
115,49,118,44
117,48,122,47
120,49,125,50
126,49,129,54
132,52,133,57
138,59,136,61
140,74,139,64
141,100,142,67
142,133,143,71
141,166,143,75
137,191,143,80
135,204,141,84
133,204,139,89
133,196,135,93
132,185,131,98
132,173,127,103
131,163,123,108
131,153,120,113
130,145,117,117
126,135,115,121
123,125,113,125
143,114,112,130
199,101,111,134
230,88,110,138
179,79,110,142
126,75,110,145
121,80,110,149
127,88,111,152
127,95,111,155
127,98,112,158
126,99,112,161
126,97,112,163
126,95,113,165
126,94,113,168
126,92,113,169
126,89,114,171
125,85,114,171
125,79,114,172
124,72,114,172
122,65,114,173
120,59,114,172
118,54,115,171
115,51,116,169
113,48,118,168
113,47,121,166
114,46,124,164
117,46,127,161
123,46,130,159
130,48,134,156
136,53,137,153
140,66,140,149
141,88,142,145
143,119,143,140
143,154,143,136
139,183,142,131
135,200,140,126
133,205,138,122
132,200,135,117
132,190,132,113
132,179,128,109
132,169,125,105
132,159,121,101
131,151,117,97
127,142,114,94
122,133,112,90
136,123,110,87
187,110,109,85
234,97,109,82
198,85,109,81
135,78,109,79
123,79,110,78
128,86,111,77
127,94,112,78
127,101,112,78
127,104,113,80
127,105,113,82
127,105,113,84
127,104,113,86
127,103,113,89
126,101,113,92
126,96,113,96
126,90,113,100
125,82,112,106
124,74,113,111
122,67,113,117
119,62,114,123
117,58,115,128
115,56,116,134
114,55,118,141
115,54,121,148
118,54,125,156
122,54,128,164
129,55,133,173
135,60,136,182
139,70,140,191
141,90,143,201
142,121,145,210
142,157,146,219
140,189,146,227
136,208,144,235
133,215,141,243
132,210,138,251
131,200,134,253
131,188,130,255
131,176,126,255
131,166,122,255
131,157,119,255
128,148,117,255
122,139,115,255
121,129,114,255
167,117,113,255
229,104,112,255
238,92,112,255
153,85,113,255
122,85,113,255
126,91,113,255
127,99,113,255
126,105,113,255
126,108,114,255
126,108,114,255
126,107,114,255
126,106,115,255
126,104,115,255
125,102,115,255
125,99,115,255
125,93,115,255
124,85,116,255
123,77,116,255
121,70,116,255
119,64,117,255
117,60,118,255
114,57,120,255
114,55,123,255
114,55,125,255
117,54,128,255
121,54,132,255
127,55,136,255
133,58,139,255
138,65,143,255
140,81,146,255
141,107,148,255
141,141,149,255
139,174,149,255
135,198,148,255
133,209,146,255
131,208,143,255
131,199,140,255
130,187,137,255
130,175,133,255
130,164,130,255
130,155,127,255
128,145,124,255
123,137,121,255
122,127,119,255
159,115,118,255
220,101,118,255
233,89,118,255
158,81,118,255
121,79,119,255
125,85,119,255
127,93,120,254
126,99,120,253
126,103,120,250
125,103,120,248
125,103,120,245
125,101,120,242
125,100,120,239
125,98,120,236
125,94,120,231
125,89,120,227
124,82,120,222
123,74,120,217
122,67,120,210
120,61,120,204
117,57,121,196
115,55,122,189
114,53,125,182
114,51,127,175
116,51,130,168
120,51,134,161
125,51,138,154
132,53,141,146
137,59,145,139
139,73,147,131
140,97,149,124
141,130,150,117
139,163,151,110
136,189,150,104
133,202,149,98
131,203,146,92
131,196,143,85
131,185,139,79
131,173,135,74
131,162,131,69
131,152,127,64
128,143,124,60
123,133,121,56
122,123,119,53
154,111,118,50
213,98,116,47
229,85,116,44
159,74,115,42
120,71,115,40
125,75,115,38
127,83,116,36
126,91,116,35
126,95,117,33
126,97,117,32
126,97,117,30
126,96,117,28
126,95,117,26
126,93,117,24
125,90,117,21
125,85,116,19
124,78,116,15
123,70,116,12
122,63,116,9
120,57,116,6
117,53,117,3
114,51,118,0
113,48,121,0
113,47,123,0
115,46,126,0
119,46,129,0
125,47,133,0
132,49,137,0
138,55,140,0
140,68,142,0
142,91,144,0
143,123,144,0
141,157,144,0
137,184,143,0
135,199,141,0
133,201,139,0
132,195,137,0
132,185,134,0
132,173,130,0
132,163,127,0
132,153,123,0
130,144,119,0
126,135,116,0
123,125,113,0
149,114,111,0
206,102,109,0
228,89,109,0
172,79,109,0
125,75,109,0
122,79,109,0
127,87,109,0
127,95,110,0
127,99,110,0
127,101,111,0
127,100,111,0
127,99,111,0
127,98,112,0
127,97,111,0
127,95,111,0
126,90,111,0
126,84,110,0
125,76,110,0
123,69,109,0
121,62,110,0
119,57,111,0
117,54,112,0
116,51,115,3
116,50,118,6
117,49,121,11
119,49,125,16
125,50,129,20
131,52,133,25
137,58,136,30
140,70,138,34
141,93,141,38
142,124,142,42
142,158,143,46
138,185,142,50
135,201,141,53
133,205,139,56
132,199,136,58
132,189,132,61
132,177,128,63
132,166,124,65
131,155,121,66
130,146,118,68
127,137,116,69
122,127,115,71
136,116,113,72
187,103,112,73
232,90,111,74
194,79,110,75
132,73,110,76
121,75,110,76
126,83,110,77
126,91,111,77
126,95,111,77
126,97,112,77
126,97,112,77
126,96,113,77
125,95,113,77
125,94,113,77
125,91,112,76
125,87,112,74
124,81,112,72
124,73,112,71
122,66,112,68
120,60,112,66
118,55,114,64
115,51,115,61
113,49,117,58
112,47,119,55
113,46,122,51
116,46,125,48
121,47,128,44
128,48,132,39
135,52,136,35
139,62,139,31
141,81,141,27
142,110,143,23
143,144,143,20
139,175,143,16
136,195,141,12
134,203,139,9
133,199,137,5
132,190,134,1
132,179,130,0
132,167,127,0
132,157,123,0
131,147,120,0
127,139,117,0
122,129,114,0
132,119,112,0
178,107,110,0
230,94,110,0
204,82,109,0
139,75,109,0
122,75,110,0
127,83,110,0
127,91,111,0
127,97,111,0
127,100,112,0
127,100,112,0
127,99,112,0
127,98,112,0
127,97,112,0
126,96,111,0
126,93,111,0
126,87,111,0
125,80,111,0
124,72,111,0
122,65,112,0
120,60,112,0
118,56,113,0
116,53,115,0
115,52,117,1
116,51,120,6
118,51,124,10
122,51,128,14
128,52,132,19
135,55,135,23
139,64,138,27
141,81,141,31
142,109,143,36
143,143,143,40
141,175,143,45
137,197,142,50
134,206,139,54
133,204,137,58
132,195,133,62
132,183,130,67
132,172,127,71
132,162,124,75
132,152,121,80
129,143,119,84
124,134,116,89
122,123,115,93
158,111,113,97
216,98,112,100
230,86,112,104
159,78,111,107
122,77,111,110
126,83,112,112
127,92,111,115
127,98,111,117
126,100,111,120
126,100,111,122
126,99,111,124
126,98,112,125
126,97,112,127
126,95,112,128
125,92,112,128
125,87,111,129
124,80,111,129
123,73,112,129
122,66,112,128
119,60,113,128
117,55,114,127
114,52,115,126
113,49,117,125
114,48,119,123
115,47,122,122
119,47,125,120
125,48,129,118
132,50,133,115
138,57,136,113
140,71,139,111
141,95,141,108
142,128,143,106
141,161,143,103
137,187,142,100
134,199,140,97
132,201,138,94
132,193,135,91
132,182,131,88
132,170,128,85
132,160,125,81
131,150,121,77
130,141,118,74
125,133,115,71
122,123,113,68
149,112,111,65
208,99,110,61
229,85,109,58
169,75,109,54
123,71,109,51
122,75,109,48
127,83,110,45
127,91,110,42
127,96,110,39
127,98,111,36
127,97,111,33
127,97,112,30
127,95,112,27
127,94,113,25
127,91,113,22
126,87,114,19
126,80,114,16
124,73,114,14
123,66,114,11
121,61,114,10
119,57,114,8
116,54,115,7
115,52,117,5
115,51,119,4
116,51,122,3
119,51,126,2
125,51,129,2
132,53,132,2
138,59,136,2
141,71,139,2
142,95,141,3
143,127,143,4
142,163,143,5
139,192,142,7
135,207,140,9
134,210,138,12
133,204,134,15
132,194,131,18
132,183,127,21
132,173,124,25
132,163,121,29
131,155,117,35
127,146,114,41
122,137,111,48
137,126,109,55
192,113,108,63
238,100,107,70
198,89,107,78
135,83,107,87
123,85,108,97
127,93,108,108
127,101,108,121
127,106,109,133
126,108,109,148
126,108,109,163
126,107,110,178
126,106,110,194
127,105,111,207
126,102,111,221
126,98,111,232
126,91,111,244
125,83,111,250
123,75,111,255
122,68,111,255
119,63,112,255
116,60,113,255
115,58,115,255
114,57,118,255
115,57,121,255
118,57,125,255
123,57,129,255
129,59,133,255
135,63,136,255
139,74,140,255
141,95,142,255
142,126,144,255
142,162,145,255
138,192,145,255
135,210,144,255
133,215,142,255
131,211,139,255
131,201,136,255
131,189,132,255
131,177,129,255
131,167,125,255
130,157,122,255
127,149,119,255
121,140,116,255
132,129,115,255
181,117,114,255
234,105,113,255
206,93,113,255
139,87,114,255
122,88,114,255
127,95,114,255
127,103,114,255
126,108,114,255
126,110,114,255
126,110,115,255
126,109,115,255
126,108,115,255
126,106,115,255
126,103,115,255
125,99,115,255
125,93,115,255
124,85,115,255
123,76,115,255
121,69,115,255
119,64,115,255
117,61,116,255
115,58,118,255
114,57,120,255
115,57,123,255
117,56,126,255
122,56,130,255
128,57,133,255
135,60,137,255
139,67,141,255
140,84,144,255
141,111,146,255
142,145,147,255
138,177,147,255
135,199,146,255
133,208,144,255
131,206,141,255
131,197,138,255
131,185,135,255
131,174,132,255
131,163,129,255
130,154,126,252
127,144,123,248
122,135,121,244
132,123,119,240
178,111,117,235
228,97,116,231
202,85,116,227
137,78,116,223
121,79,116,219
126,86,116,215
127,95,116,211
126,101,116,207
126,103,116,203
126,104,117,199
126,103,117,194
125,102,118,190
125,100,118,185
125,98,119,181
125,93,119,177
124,87,119,173
123,79,119,167
122,72,119,162
120,65,119,156
118,60,119,151
115,56,119,144
113,53,120,137
112,52,122,130
113,51,124,123
116,50,127,117
120,50,131,110
127,51,135,104
134,53,139,98
137,61,142,92
139,77,145,86
141,103,147,80
141,136,148,73
138,169,148,68
135,192,147,63
132,202,145,58
131,200,143,53
131,192,140,48
131,180,136,44
131,168,132,39
131,157,128,34
130,147,125,30
127,138,121,26
122,129,118,22
131,118,116,18
177,106,114,14
228,93,113,11
202,81,113,8
137,73,112,5
121,73,112,2
126,79,112,0
126,87,112,0
126,94,112,0
126,97,113,0
126,98,113,0
126,97,114,0
126,97,114,0
125,95,114,0
125,93,114,0
125,90,114,0
125,84,114,0
124,77,114,0
122,69,114,0
121,63,114,0
118,58,114,0
116,54,115,0
113,52,116,0
113,50,117,0
114,49,120,0
117,49,122,0
121,49,125,0
127,50,128,0
134,53,131,0
139,61,135,0
140,78,138,0
142,105,140,0
143,138,142,0
140,169,142,0
136,191,141,0
134,201,139,0
133,200,136,0
132,192,132,0
132,181,128,0
132,171,124,0
132,160,120,0
132,151,117,0
129,142,114,0
123,133,111,0
122,123,109,0
166,110,107,0
225,97,106,0
233,85,105,0
151,78,105,0
122,77,104,0
127,84,105,0
127,92,105,0
127,99,105,0
127,101,106,0
126,101,106,0
126,100,106,0
126,99,106,0
126,98,106,0
126,97,106,0
126,93,106,4
126,88,106,8
126,81,105,14
124,74,105,20
122,67,105,26
120,61,105,31
117,57,106,37
115,53,108,42
114,52,111,47
115,51,113,53
117,50,117,57
121,51,120,61
126,51,124,65
133,55,128,69
138,62,132,71
140,78,135,74
141,104,137,76
142,138,138,78
140,170,138,80
136,194,138,81
134,204,136,82
132,203,134,82
131,194,131,83
131,183,128,83
131,171,124,83
131,161,120,83
131,151,117,83
129,142,114,83
124,133,112,83
122,122,110,83
153,110,109,83
212,97,108,82
229,84,107,82
162,75,107,81
121,73,107,81
124,79,107,80
127,88,108,79
126,95,108,78
126,98,108,76
126,98,109,75
126,97,109,73
126,96,109,71
126,95,109,69
126,94,109,67
125,91,109,65
125,86,109,63
124,79,109,61
123,71,109,58
122,64,109,55
119,59,110,51
116,54,110,48
114,51,112,45
112,49,114,42
113,49,116,39
114,48,118,36
118,48,122,33
124,49,126,29
131,51,130,26
137,57,134,22
140,69,137,19
141,92,140,16
143,123,141,13
141,156,142,10
138,183,141,7
135,198,139,5
133,201,137,3
133,196,135,1
132,185,131,0
132,174,128,0
132,163,124,0
132,153,120,0
130,144,116,0
126,135,113,0
123,125,111,0
147,114,109,0
204,101,108,0
228,89,107,0
173,79,107,0
125,75,107,0
122,79,106,0
128,87,106,0
127,95,107,0
127,100,107,0
127,102,107,0
127,101,108,0
127,100,108,0
127,99,108,0
127,98,108,0
127,95,108,3
126,91,108,5
126,84,108,8
125,77,108,11
123,69,108,15
121,63,109,18
119,58,110,22
116,55,111,26
115,53,112,31
115,51,115,35
117,51,118,40
119,51,121,45
124,51,125,50
131,53,129,55
137,59,133,60
140,71,136,64
141,93,138,68
142,124,140,72
143,158,141,76
138,186,141,79
135,202,139,83
133,205,137,87
132,200,134,90
132,190,130,93
131,178,127,96
131,167,123,99
131,157,120,102
130,149,117,105
127,139,115,108
122,129,113,110
135,118,111,113
185,105,110,115
231,92,109,118
195,82,108,120
133,77,108,122
121,81,108,124
126,88,108,125
126,95,108,127
126,98,109,128
126,99,109,129
125,98,109,130
125,97,110,131
125,96,110,132
126,95,111,133
125,93,111,133
125,89,111,133
125,83,111,133
124,75,111,132
122,68,112,131
120,61,112,130
118,57,113,127
115,53,114,125
112,51,115,122
112,49,117,119
113,48,119,116
116,48,122,113
121,48,126,110
128,49,129,107
135,53,133,103
139,61,137,100
140,80,139,95
142,109,141,91
142,143,142,86
138,174,141,82
135,195,140,78
133,202,138,73
132,199,136,69
132,190,133,64
132,178,129,60
132,167,125,55
132,157,122,50
131,147,118,46
127,139,116,42
122,129,113,37
134,119,111,34
182,106,110,30
231,93,109,27
200,80,109,24
136,72,108,21
122,72,108,19
127,79,108,16
127,87,109,14
127,95,109,13
127,98,109,11
127,99,110,10
127,99,110,10
127,98,110,9
127,97,111,9
126,96,111,9
126,92,111,8
126,86,111,9
125,79,111,10
124,71,111,11
122,65,111,12
120,59,111,13
117,55,112,14
115,53,114,15
115,52,116,17
116,51,118,19
118,51,121,20
123,51,125,22
129,52,128,24
135,56,131,27
139,65,134,29
141,83,137,31
142,111,139,34
143,145,140,37
140,176,141,40
136,197,140,43
134,205,139,47
133,203,136,51
132,194,133,55
132,183,130,59
132,171,126,64
132,161,122,68
131,151,119,73
129,142,116,77
123,133,114,81
123,122,112,86
163,110,110,91
221,97,109,96
231,85,108,102
152,79,108,106
121,79,109,111
126,86,109,116
127,94,110,120
127,99,111,125
126,101,111,129
126,101,111,133
126,99,111,137
126,98,111,141
126,97,111,144
126,95,111,147
125,92,111,150
125,87,111,151
124,80,112,153
123,72,112,154
121,65,113,156
119,59,113,156
116,55,114,156
113,51,115,155
112,49,117,154
113,47,119,153
115,47,122,152
119,47,125,150
125,48,128,149
133,51,132,146
138,58,135,144
140,73,138,141
141,97,140,138
142,130,141,135
140,163,142,131
136,188,143,128
134,199,143,124
132,200,141,121
132,192,139,118
131,181,136,114
131,169,132,111
131,159,128,108
131,149,125,104
129,140,121,100
123,131,118,97
122,121,116,93
155,109,114,90
214,97,113,87
229,84,113,84
159,74,113,81
121,71,113,77
125,76,113,74
127,84,113,70
127,91,114,67
126,95,114,63
126,97,114,60
126,97,115,56
126,96,115,53
126,95,116,51
126,94,116,48
126,91,116,46
125,86,117,43
125,79,117,41
123,71,117,39
122,65,117,36
120,59,117,34
117,55,117,33
115,53,117,31
113,51,118,29
113,50,120,28
115,49,123,26
119,50,126,25
125,51,130,24
132,53,133,23
138,59,137,22
140,74,140,21
141,99,143,21
143,133,145,21
142,167,145,21
138,195,145,21
135,209,143,21
133,210,141,23
132,203,138,24
132,193,134,26
132,181,130,28
132,170,127,31
132,161,123,33
130,152,120,36
125,143,117,39
122,133,115,43
142,122,113,48
201,109,111,55
237,97,111,61
187,86,110,70
129,83,110,79
122,86,110,90
127,95,111,101
126,102,111,111
126,106,111,122
126,107,112,133
126,107,112,145
126,106,112,158
126,105,113,171
126,103,113,186
125,101,113,200
125,96,114,213
124,89,114,226
123,81,114,237
122,73,114,247
120,67,114,251
118,62,115,255
115,59,116,255
114,57,118,255
113,56,120,255
115,56,124,255
118,56,127,255
123,56,131,255
130,58,135,255
136,63,138,255
139,75,141,255
140,97,144,255
141,129,146,255
141,164,146,255
137,193,146,255
134,210,145,255
132,213,143,255
131,208,141,255
131,197,137,255
131,185,134,255
131,174,130,255
131,164,126,255
130,155,123,255
126,147,120,255
121,138,119,255
136,127,117,255
190,115,117,255
236,101,117,255
197,90,117,255
133,85,117,255
122,87,117,255
126,94,117,255
126,102,118,255
125,107,118,255
125,109,118,255
125,109,119,255
125,108,120,255
125,106,120,255
125,104,121,255
125,101,121,255
124,97,120,255
124,90,120,255
123,82,119,255
122,73,118,255
120,67,118,255
118,62,118,255
115,59,119,255
113,57,121,255
113,56,123,255
114,55,126,255
117,55,130,255
122,55,133,255
128,55,136,255
135,59,140,255
138,67,143,255
139,85,146,255
141,114,149,255
141,149,150,255
137,180,150,255
134,200,149,255
132,207,148,255
131,203,145,255
131,194,142,255
131,182,139,255
130,171,136,254
130,160,133,253
129,151,130,248
126,141,127,243
121,132,125,238
135,121,123,234
185,108,121,230
230,95,120,226
195,83,119,222
133,77,119,218
121,79,119,214
127,87,119,210
126,95,119,206
126,100,120,202
126,102,120,198
126,102,120,195
126,101,120,190
126,100,121,186
125,98,121,182
125,96,121,177
125,92,121,172
124,85,120,166
123,77,120,161
122,70,120,155
120,63,120,149
118,58,120,144
115,54,120,138
113,51,120,133
112,49,122,127
113,48,124,120
116,48,127,114
121,48,131,107
127,49,135,101
135,52,138,95
138,60,142,89
140,77,144,84
141,104,146,78
142,138,147,72
138,169,148,66
135,191,147,60
133,199,146,54
132,197,144,48
131,189,141,42
131,177,138,36
131,165,135,31
131,155,131,26
130,145,128,21
127,135,124,16
122,125,121,12
134,115,119,7
182,103,117,3
229,89,116,0
195,78,115,0
133,71,114,0
121,71,114,0
127,77,114,0
126,85,114,0
126,92,114,0
126,95,115,0
126,96,115,0
126,95,115,0
126,95,116,0
126,93,116,0
126,91,117,0
125,87,117,0
125,81,117,0
124,74,117,0
123,67,117,0
121,60,117,0
119,55,117,0
116,52,118,0
114,49,119,0
114,48,120,0
115,47,123,0
117,47,125,0
122,47,128,0
128,49,131,0
135,53,134,0
139,62,138,0
140,80,141,0
142,107,143,0
142,141,144,0
140,172,145,0
136,193,144,0
134,202,142,0
132,201,139,0
132,192,136,0
132,181,133,0
132,171,129,0
132,160,126,0
131,151,122,0
128,142,119,0
123,132,116,0
122,121,114,0
165,109,112,0
223,96,111,0
233,84,110,0
152,76,109,0
122,76,108,0
127,82,108,0
127,91,108,0
127,97,108,0
126,100,109,0
126,100,109,0
126,99,109,7
126,98,110,14
126,97,110,21
126,95,110,27
126,91,111,34
126,86,111,41
125,79,110,47
124,71,110,54
122,64,110,59
119,59,111,65
117,54,111,69
114,51,112,74
114,49,114,78
114,49,116,81
116,48,119,84
120,48,122,86
126,49,126,88
133,52,130,89
137,59,133,89
140,75,136,89
140,101,138,89
141,135,140,89
140,169,140,88
136,193,140,88
133,204,139,86
131,203,137,85
131,194,133,83
131,182,130,82
131,170,126,80
131,159,122,79
131,150,119,78
129,141,116,76
124,131,113,75
122,121,111,74
151,109,110,74
211,96,108,73
230,82,107,72
165,73,107,71
121,70,107,71
120,75,106,70
126,84,106,69
125,92,106,69
125,95,107,68
125,96,107,67
125,95,107,66
125,94,108,65
125,93,108,63
125,91,108,61
125,88,108,60
124,83,108,58
124,76,108,56
122,69,108,53
121,62,108,50
119,56,108,47
116,52,109,44
113,49,110,40
112,47,112,36
112,46,114,32
114,45,117,28
117,45,120,23
123,46,124,19
130,48,128,16
136,54,132,12
139,67,135,9
141,90,138,5
142,122,140,2
141,156,141,1
137,184,141,0
134,199,139,0
132,203,137,0
131,197,134,0
131,187,131,0
131,176,128,0
131,165,124,0
131,155,120,0
130,146,117,0
125,137,114,0
122,128,111,0
143,117,109,0
201,105,108,0
234,92,107,0
182,82,106,0
127,77,106,0
122,80,107,0
128,88,107,0
127,96,107,0
127,101,108,0
126,103,108,0
126,103,108,1
126,103,109,3
126,102,109,8
127,101,109,12
126,99,109,18
126,94,109,24
125,87,109,31
124,80,109,39
123,72,109,48
121,65,109,56
119,60,109,66
116,57,109,76
114,55,110,86
114,54,112,95
115,54,115,105
118,53,118,114
123,54,123,124
129,56,127,135
136,61,131,146
139,74,135,157
140,97,138,168
141,129,140,178
142,165,141,188
138,193,141,198
135,210,140,209
132,213,138,220
131,207,136,231
130,196,132,242
130,184,129,248
130,173,125,255
130,163,121,255
130,154,118,255
126,145,115,255
121,136,113,255
132,125,111,255
180,113,110,255
233,100,109,255
206,88,108,255
139,83,108,255
122,85,108,255
127,93,108,255
126,101,109,255
126,106,109,255
126,107,110,255
125,107,110,255
125,106,111,255
125,105,111,255
125,103,112,255
125,101,112,255
125,97,112,255
124,91,112,255
124,83,112,255
122,75,112,255
121,68,112,255
118,63,113,255
116,59,114,255
114,57,115,255
113,56,117,255
114,55,119,255
116,55,123,255
121,55,127,255
127,56,131,255
134,59,135,255
138,68,139,255
139,87,143,255
140,116,145,255
141,152,146,255
138,184,146,255
134,204,145,255
132,211,143,255
131,207,141,255
130,196,138,255
130,184,135,255
130,173,131,255
130,162,128,255
130,153,125,255
127,144,121,255
121,135,119,255
129,124,117,255
174,111,116,255
230,98,115,255
231,87,115,255
143,80,115,255
121,82,116,255
126,89,116,255
127,97,117,255
126,101,118,255
125,103,118,255
125,103,118,255
125,102,118,255
125,101,118,255
125,99,118,255
125,97,118,255
125,93,117,255
124,87,117,255
124,80,117,255
123,72,117,253
121,65,117,250
119,60,117,244
116,56,118,238
114,54,119,232
113,52,121,225
114,51,123,219
116,51,126,213
121,51,129,205
127,51,133,198
134,54,137,190
138,61,140,181
139,77,142,173
141,103,145,164
141,137,147,155
138,169,147,146
135,191,147,139
132,202,146,131
131,200,144,124
131,192,141,117
130,181,137,111
130,169,133,104
130,158,130,98
130,149,127,92
127,139,124,87
122,129,121,82
128,119,119,78
170,107,117,74
226,93,117,71
230,81,116,67
143,73,116,64
120,71,116,61
126,77,116,58
126,85,116,55
125,92,116,53
125,95,116,50
125,96,116,48
125,95,116,46
125,94,116,44
125,93,116,42
125,91,116,39
125,87,116,36
124,82,115,33
123,75,115,30
122,67,115,27
120,61,115,24
118,55,115,21
115,51,116,18
112,48,117,14
112,46,119,11
112,45,121,6
115,45,123,2
119,45,127,1
126,46,130,0
133,49,134,0
138,56,137,0
140,71,140,0
141,97,143,0
142,130,144,0
139,163,145,0
136,188,144,0
134,199,143,0
132,199,141,0
132,191,138,0
132,180,134,0
132,169,130,0
132,158,126,0
132,149,122,0
129,139,119,0
124,130,116,0
123,120,113,0
163,108,111,0
221,95,109,0
231,82,108,0
152,73,107,0
121,71,107,0
127,77,107,0
127,86,107,0
127,93,106,0
127,97,106,0
127,98,106,0
127,98,105,0
126,97,105,0
126,96,106,0
126,95,106,0
126,92,107,0
126,87,107,0
125,79,107,0
124,71,107,0
122,64,107,0
120,58,107,0
118,53,107,0
115,51,108,0
115,49,110,0
115,48,112,0
117,47,115,0
121,47,119,0
126,48,123,0
133,51,126,1
138,58,129,3
140,73,132,8
141,98,135,13
142,132,137,18
141,166,138,22
137,191,138,27
134,203,138,31
133,203,136,35
132,196,133,39
132,185,130,43
132,173,126,47
131,162,123,51
131,152,120,55
130,143,117,58
125,134,114,62
122,124,112,65
144,113,109,68
201,99,108,71
229,86,106,74
176,77,105,76
126,74,105,78
121,79,105,80
127,87,106,82
126,95,106,83
126,98,106,85
126,98,107,87
126,97,107,88
126,95,107,89
125,93,108,90
125,91,108,90
126,89,108,90
125,84,108,90
124,78,108,90
123,71,108,89
121,63,108,88
119,58,108,86
117,53,109,84
114,49,109,82
112,47,111,81
112,45,113,78
114,44,115,76
117,44,119,73
122,44,123,71
129,46,127,67
135,52,131,64
139,64,135,60
140,86,137,57
141,117,139,54
142,152,140,50
137,180,140,46
134,196,139,43
132,199,137,38
131,194,134,34
131,184,131,30
131,172,127,26
131,161,123,21
131,152,120,17
130,143,116,13
126,134,113,10
122,125,111,6
139,114,109,3
195,101,108,1
234,88,107,0
188,77,107,0
129,71,107,0
121,72,107,0
127,80,107,0
127,88,108,0
126,94,108,0
126,97,108,0
126,97,107,0
126,97,107,0
126,96,107,0
126,95,108,0
126,92,108,0
126,88,107,0
125,82,107,0
125,75,107,0
123,67,107,0
121,61,107,0
119,57,108,0
116,53,109,0
114,51,110,0
114,50,113,0
115,49,115,0
118,50,119,0
123,50,122,0
129,52,125,0
135,57,129,0
139,68,132,0
141,89,136,0
142,121,138,0
142,158,140,0
139,189,140,4
135,207,139,9
133,213,137,14
132,209,134,20
131,198,131,26
131,186,127,32
131,175,123,38
131,165,120,45
131,156,117,53
127,148,115,62
122,139,112,72
128,128,110,82
171,116,108,92
230,102,107,103
235,90,106,113
148,83,106,123
122,84,106,136
126,91,106,148
127,99,106,163
126,105,107,177
126,107,107,191
126,107,107,205
126,106,108,218
125,105,108,231
125,104,108,241
125,102,109,251
125,98,108,253
125,92,108,255
124,85,108,255
123,77,108,255
121,69,108,255
119,63,108,255
116,60,109,255
114,57,110,255
113,56,112,255
113,55,115,255
116,55,118,255
120,55,122,255
126,56,126,255
133,59,130,255
138,68,134,255
139,85,138,255
140,114,141,255
141,149,142,255
138,182,143,255
135,205,142,255
132,215,141,255
131,213,139,255
130,203,136,255
130,191,133,255
130,179,130,255
130,169,126,255
130,159,123,255
127,151,120,255
122,141,117,255
121,131,115,255
161,120,114,255
222,106,113,255
234,93,113,255
155,84,113,255
121,82,113,255
125,87,114,255
127,95,115,255
126,102,115,255
126,106,116,255
126,107,117,255
125,107,117,255
125,105,117,255
125,103,117,255
125,101,117,255
125,97,117,255
125,91,116,255
124,84,116,255
123,76,116,255
122,69,116,255
119,63,116,255
117,59,117,255
115,56,118,255
114,54,120,255
114,53,123,255
116,53,126,255
120,53,128,255
126,53,132,255
133,55,136,255
137,61,140,255
139,75,143,255
141,99,147,255
142,132,149,255
140,166,151,255
136,192,151,255
133,205,149,251
132,206,147,246
132,199,144,240
131,187,140,234
131,175,137,229
132,164,133,224
131,154,129,218
129,145,126,213
124,136,123,208
122,126,120,202
158,114,119,197
217,101,117,192
232,88,117,187
159,79,117,181
122,77,117,177
126,81,117,173
127,90,117,169
126,97,118,165
126,100,118,161
126,101,118,157
126,101,118,153
126,100,118,149
126,98,118,145
125,96,118,142
125,92,118,138
125,87,118,134
124,79,118,130
123,72,118,126
121,65,118,121
119,59,118,116
116,55,119,111
113,52,119,105
112,50,121,100
112,48,123,94
114,47,125,89
119,47,128,84
125,47,131,79
132,49,135,74
136,55,139,69
139,67,142,64
140,91,144,58
141,124,146,53
139,158,147,49
135,185,147,44
133,199,146,40
131,201,144,36
131,193,141,32
131,182,137,28
131,170,134,24
131,159,130,20
131,149,126,16
129,140,123,12
124,131,120,8
122,121,117,4
154,109,116,2
215,97,114,0
232,83,113,0
161,73,112,0
121,69,112,0
125,73,112,0
127,82,112,0
126,90,112,0
126,94,112,0
126,96,112,0
126,96,112,0
126,95,112,0
126,94,113,0
126,93,112,0
125,89,112,0
125,84,112,0
124,77,112,0
123,70,112,0
122,63,112,0
119,57,112,0
117,53,113,0
114,50,113,0
113,48,115,0
113,47,116,0
116,46,119,0
119,46,121,0
125,46,124,0
132,49,128,0
137,55,131,0
140,68,135,0
141,91,138,0
142,123,140,0
141,156,141,0
138,183,141,0
135,198,140,0
133,201,138,0
132,196,136,0
132,186,133,0
132,175,129,0
132,164,125,0
132,154,121,0
131,145,117,0
126,135,114,0
123,125,110,0
144,114,108,0
199,101,105,0
231,88,104,0
182,77,104,0
127,73,103,0
122,77,103,0
128,85,104,0
127,93,104,0
127,98,104,0
127,99,105,0
127,99,105,0
127,98,106,0
127,97,106,3
127,95,106,7
127,93,107,15
126,89,107,22
126,82,107,28
125,75,107,35
123,67,107,41
121,61,107,47
119,55,108,53
117,52,108,59
115,49,110,64
115,48,111,69
116,47,114,74
119,47,117,78
123,48,120,82
130,50,124,85
136,55,128,88
139,66,132,90
140,88,135,92
142,119,137,93
142,154,139,94
138,183,139,95
135,200,139,95
133,204,137,95
132,199,135,95
132,189,132,95
132,177,128,95
132,166,124,95
132,156,121,94
131,147,117,94
127,137,115,94
123,127,113,93
134,116,111,93
182,103,109,93
229,89,108,92
197,77,107,92
134,72,106,92
121,74,106,92
127,81,106,92
127,89,106,92
127,94,106,92
127,95,107,92
126,95,107,91
126,95,107,91
126,94,108,91
126,93,108,90
126,91,108,89
125,87,109,89
125,81,109,87
124,73,109,85
122,66,109,82
121,59,109,80
118,55,109,77
115,51,110,74
113,48,111,71
112,46,113,68
113,45,115,64
116,45,117,60
121,45,121,55
127,46,124,51
135,49,128,46
139,59,132,41
141,76,135,36
142,104,138,31
143,138,140,27
139,170,140,23
136,191,140,19
134,200,138,16
133,197,136,12
133,189,133,9
132,178,130,5
133,167,127,2
133,157,123,1
132,147,119,0
129,138,116,0
123,129,113,0
130,118,110,0
172,106,108,0
227,93,106,0
230,81,105,0
145,73,105,0
122,72,105,0
127,79,105,0
128,87,105,0
127,95,106,0
127,98,106,0
127,99,107,0
127,99,107,0
127,98,108,0
127,97,108,0
127,95,108,0
127,91,108,0
126,86,108,0
125,78,108,0
124,71,109,2
122,63,109,4
120,58,109,8
117,53,109,11
115,50,110,15
115,49,111,20
115,47,113,24
117,47,115,29
122,47,119,34
127,48,122,39
134,52,127,44
139,60,130,49
141,77,133,53
142,104,136,58
142,138,139,62
141,171,140,67
137,194,139,72
134,204,138,77
133,203,136,81
132,194,133,85
132,183,130,89
132,171,126,93
132,160,123,97
132,151,120,101
129,142,118,105
124,133,115,109
123,123,112,113
153,111,110,117
213,98,109,120
231,85,107,124
167,76,107,127
124,75,107,130
123,80,107,132
128,88,108,134
127,95,109,136
127,98,109,138
127,99,109,139
126,98,110,141
126,96,110,142
127,95,110,143
127,93,110,144
126,90,109,145
126,85,110,145
124,79,110,145
123,71,110,144
122,65,110,144
120,59,111,142
117,54,112,141
114,51,113,139
113,48,114,137
113,46,116,135
115,45,118,133
118,45,121,131
124,45,124,129
131,47,128,126
136,53,132,124
139,67,135,121
140,91,138,118
141,123,140,116
140,157,141,113
136,184,141,111
134,198,140,108
132,200,139,106
131,193,136,103
131,182,133,101
131,170,129,98
131,159,126,95
131,149,122,93
130,140,119,90
125,131,116,87
122,121,114,85
146,110,112,82
203,97,110,80
229,84,109,77
175,73,108,74
125,68,107,71
121,71,107,68
127,80,107,65
127,88,108,63
127,93,109,60
127,95,110,57
127,95,110,55
127,95,111,52
127,94,111,49
127,93,111,46
127,90,111,43
127,85,112,39
126,79,112,36
125,71,112,33
123,65,112,30
122,59,112,27
119,55,113,25
116,52,113,23
115,50,114,20
115,49,116,19
116,48,118,17
119,48,121,16
124,49,125,15
131,51,128,14
137,56,131,14
141,69,134,14
142,92,137,14
143,124,139,15
143,160,141,16
139,189,141,18
136,207,140,19
134,211,139,23
132,205,136,26
132,195,133,31
132,183,129,36
132,173,126,41
132,163,123,46
131,154,122,52
127,145,120,58
122,136,118,66
134,125,115,74
184,112,114,84
235,99,112,94
203,87,111,104
138,81,111,114
123,83,111,124
128,90,111,134
127,98,112,146
127,104,112,158
127,106,113,171
127,106,113,185
127,105,113,198
127,104,114,211
127,103,114,224
127,101,115,236
126,96,115,246
126,90,115,255
125,83,115,255
124,75,115,255
122,67,115,255
119,62,115,255
117,58,116,255
115,56,117,255
114,55,119,255
115,54,121,255
118,54,124,255
122,54,128,255
129,55,132,255
135,60,136,255
139,70,140,255
141,91,143,255
141,121,146,255
142,157,147,255
139,189,147,255
135,208,147,255
133,215,146,255
132,211,144,255
131,201,141,255
131,189,137,255
131,177,134,255
131,167,130,255
130,157,127,255
127,149,124,255
122,140,122,255
130,129,120,255
175,117,118,255
233,104,117,255
236,92,117,255
145,85,117,255
122,85,117,255
126,91,117,255
127,99,118,255
126,105,118,255
126,108,119,255
126,108,119,255
126,107,120,255
126,106,120,255
126,104,120,255
126,101,120,255
125,97,120,255
125,91,120,255
124,83,120,255
123,75,120,255
121,67,120,255
119,62,120,255
116,58,120,255
114,56,121,255
113,54,123,255
114,53,126,255
117,53,129,255
121,53,132,255
127,53,135,255
134,56,139,255
138,63,142,255
140,78,146,255
141,105,149,255
141,139,151,255
139,173,152,255
135,197,153,255
133,207,152,255
131,206,150,255
131,197,147,255
131,185,143,255
131,173,140,255
131,161,136,255
130,152,133,251
127,143,130,247
122,133,127,244
130,122,124,240
172,110,123,236
229,97,122,232
232,84,121,229
145,76,121,225
121,76,121,221
127,83,122,217
127,91,122,213
127,97,122,209
126,100,122,205
126,101,122,202
126,100,123,198
126,99,123,193
126,97,123,189
126,95,124,184
125,91,124,180
125,86,124,176
124,79,123,171
123,71,122,167
121,64,122,162
119,59,122,156
117,55,122,150
114,52,122,144
114,50,124,138
114,49,126,131
117,48,129,124
121,48,132,118
127,49,135,111
133,52,139,105
138,59,143,99
139,76,146,94
141,102,148,88
142,136,150,82
139,169,151,77
135,193,151,72
133,204,150,67
131,203,148,63
131,195,145,59
131,183,142,55
131,172,139,52
131,161,135,49
131,151,131,46
128,142,128,43
123,132,125,41
122,121,122,39
165,109,120,38
222,96,119,37
230,84,118,36
150,75,117,35
121,74,117,35
126,79,117,34
127,88,117,34
126,95,117,34
126,98,117,34
126,99,118,34
125,98,118,34
126,97,119,34
126,95,119,34
125,93,120,35
125,90,120,35
125,85,119,35
124,78,119,34
123,70,119,34
121,64,119,33
119,58,119,33
116,54,120,32
113,50,121,31
112,48,122,29
113,46,124,28
115,45,127,27
119,45,129,27
125,46,131,25
132,49,135,24
137,56,138,23
139,71,141,21
140,96,144,20
141,129,146,19
139,163,147,18
135,187,147,17
133,199,146,16
131,200,144,15
131,192,142,15
131,181,139,14
131,170,136,14
130,159,133,13
130,149,129,13
128,139,126,12
123,130,123,12
122,119,120,12
157,108,117,11
216,95,116,11
229,81,115,10
156,72,114,9
120,69,114,9
125,75,115,8
127,83,115,7
126,90,115,7
126,94,115,6
126,95,115,6
126,95,116,5
126,94,116,4
126,93,116,3
126,92,117,2
126,89,117,1
125,84,116,0
124,77,116,0
123,69,116,0
122,62,116,0
120,57,116,0
117,53,117,0
115,49,117,0
114,47,118,0
114,46,120,0
116,46,123,0
120,46,126,0
125,47,129,0
132,49,133,0
138,55,137,0
140,69,141,0
141,94,143,0
142,127,145,0
141,162,146,0
138,189,146,0
135,203,145,0
133,204,143,0
132,198,140,0
132,187,137,0
132,175,133,0
132,164,130,0
132,155,126,0
130,145,122,0
126,136,119,0
123,126,116,0
143,115,114,0
200,102,112,0
230,89,110,0
179,79,109,0
127,75,109,1
122,79,108,2
127,87,108,6
127,95,109,10
126,99,109,15
126,99,110,20
126,98,110,26
126,97,110,31
126,95,111,37
126,94,111,42
126,91,111,47
125,86,111,52
125,80,111,57
124,72,110,61
122,65,110,65
120,59,110,69
118,54,111,73
115,50,112,76
113,47,114,79
113,46,116,81
114,45,118,83
118,45,121,84
123,45,124,84
130,47,128,85
136,52,132,84
140,63,135,83
141,85,139,81
142,115,141,80
142,149,142,77
138,177,142,74
135,195,141,71
133,200,140,69
132,195,137,66
132,185,134,63
132,174,131,59
132,163,128,56
132,153,124,53
131,143,120,49
127,134,117,46
122,124,114,43
137,113,111,40
190,101,109,37
233,87,108,34
194,76,107,31
132,70,107,28
122,71,107,25
127,79,108,23
127,87,108,20
127,93,109,17
127,95,110,15
126,95,111,12
126,95,111,10
127,95,111,9
127,94,111,7
126,92,111,6
126,88,111,4
125,81,110,3
124,74,110,2
123,66,110,1
121,60,109,0
119,55,110,0
117,52,110,0
115,49,111,0
114,48,113,0
116,47,115,0
118,47,118,0
123,47,121,0
129,49,125,1
135,53,129,2
139,63,133,3
141,83,137,4
142,112,139,5
143,147,141,6
140,178,142,8
136,198,142,10
134,205,141,12
132,201,138,15
132,192,135,18
132,180,131,21
132,169,127,24
132,158,123,27
132,149,119,30
129,140,116,34
124,131,113,39
123,121,112,43
165,108,110,48
222,95,109,54
230,82,108,59
149,74,108,65
121,75,108,71
126,82,108,76
127,91,108,82
127,97,108,87
126,99,109,92
126,99,109,97
126,98,109,102
126,96,109,106
126,95,109,111
126,93,109,115
126,89,110,119
125,83,110,122
125,76,110,125
123,68,111,128
121,61,111,130
119,55,112,131
116,51,112,133
114,48,113,133
113,46,115,133
113,45,117,133
115,44,119,132
119,44,122,131
125,45,126,129
133,48,130,128
138,55,134,126
140,71,137,123
141,96,140,120
142,130,142,117
140,163,142,113
136,188,142,110
134,199,141,106
132,199,139,103
132,191,137,99
131,180,134,95
131,169,130,91
132,158,126,86
132,148,123,82
130,139,120,77
124,130,117,73
122,120,114,68
155,108,112,64
215,95,110,60
230,82,109,56
160,72,109,53
122,69,108,50
126,74,109,47
127,82,109,43
127,90,110,40
127,94,110,37
126,96,111,35
126,95,111,32
126,95,112,30
127,94,112,28
127,93,112,26
126,90,112,24
126,85,112,22
125,78,112,21
124,71,111,19
123,64,111,18
121,58,112,16
118,54,112,15
116,51,113,14
114,49,115,14
115,48,117,13
117,48,120,13
120,48,123,13
125,49,126,13
132,52,130,13
138,59,133,14
141,74,136,15
142,100,138,16
143,134,140,17
143,168,142,18
139,195,142,21
135,209,141,23
133,211,140,26
133,204,138,29
132,193,135,34
132,181,131,38
132,171,127,44
132,161,124,50
131,152,120,56
126,144,117,62
122,134,114,68
139,123,112,75
196,110,110,84
238,97,109,93
193,86,108,104
132,82,108,115
122,85,108,126
127,93,108,137
127,99,109,148
126,104,109,159
126,105,110,172
126,105,110,185
126,105,110,198
126,104,111,212
126,103,111,224
126,100,111,236
125,95,110,246
125,89,110,255
124,81,109,255
122,73,109,255
121,66,109,255
118,61,110,255
116,58,111,255
114,56,113,255
114,55,115,255
115,54,118,255
118,54,121,255
123,54,125,255
129,55,129,255
135,60,133,255
139,72,136,255
140,94,139,255
141,126,142,255
142,163,143,255
138,193,144,255
135,212,144,255
132,217,143,255
131,211,141,255
131,199,138,255
131,187,135,255
131,175,132,255
131,165,129,255
130,156,126,255
126,147,123,255
121,138,120,255
134,127,118,255
184,115,117,255
235,101,116,255
203,90,115,255
137,84,115,255
122,85,115,255
127,93,116,255
126,100,116,255
126,105,116,255
126,107,117,255
125,106,117,255
125,105,118,255
125,104,118,255
125,103,118,255
125,100,118,255
125,96,117,255
124,89,117,255
123,82,116,255
122,74,116,255
121,67,116,255
118,61,117,255
116,58,118,255
114,55,120,255
114,54,121,255
115,53,124,255
117,53,129,255
122,53,133,255
128,53,137,255
135,56,140,255
138,65,143,255
139,82,146,255
141,109,148,255
141,144,149,255
137,176,149,255
134,198,148,255
132,207,146,253
131,204,144,250
131,195,141,245
131,183,137,239
131,171,134,234
131,161,131,228
130,151,128,223
127,142,125,217
122,133,122,213
133,121,120,208
180,109,119,203
229,95,118,198
199,83,118,193
136,76,118,189
121,76,118,184
126,82,118,179
127,91,119,174
126,97,119,169
125,100,119,165
125,101,119,160
125,100,119,156
125,99,119,152
125,97,118,147
125,95,118,143
125,91,118,138
124,84,119,133
124,77,119,128
122,69,119,123
120,62,120,119
118,57,120,114
115,53,121,109
113,50,121,103
113,48,123,98
114,47,125,92
116,46,127,86
121,46,131,79
128,47,135,73
135,50,138,66
138,58,141,61
140,76,144,55
142,103,146,50
142,137,147,45
139,169,147,39
135,191,146,34
133,200,145,29
132,198,142,24
131,189,139,20
131,178,135,16
131,167,131,12
131,156,127,8
131,146,123,4
127,137,119,0
122,127,116,0
131,116,114,0
176,104,113,0
228,91,112,0
203,78,112,0
138,71,112,0
121,71,112,0
127,77,112,0
127,86,112,0
127,92,112,0
127,95,112,0
126,95,113,0
126,95,113,0
126,94,113,0
126,93,114,0
126,91,114,0
126,88,114,0
126,82,114,0
125,75,114,0
123,67,114,0
122,60,115,0
119,55,115,0
117,51,116,0
115,49,117,0
114,47,119,0
115,46,121,0
118,45,124,0
122,46,127,0
128,47,130,0
135,50,133,0
139,59,136,0
141,76,139,0
142,104,141,0
143,139,142,0
141,172,142,0
137,194,141,0
134,204,139,0
133,202,136,0
133,193,132,0
132,181,129,0
132,170,125,0
132,160,122,0
133,151,119,0
129,142,115,0
124,133,112,0
122,123,110,0
160,111,108,0
221,97,106,0
234,84,106,0
158,75,105,0
122,74,105,0
127,80,105,0
128,89,105,0
127,96,105,0
127,99,105,0
127,100,106,0
127,99,106,3
127,97,106,6
127,96,107,12
127,94,107,19
126,91,107,25
126,86,107,32
125,79,107,38
124,72,107,45
122,65,107,50
120,59,108,56
118,54,108,61
115,51,110,65
114,49,112,69
114,48,114,73
116,47,117,75
120,47,121,78
126,48,125,79
132,51,130,81
137,58,134,82
140,73,137,82
141,99,140,83
142,133,141,83
141,166,141,82
137,190,141,81
134,202,140,80
132,202,137,79
132,194,134,78
131,182,130,76
131,170,125,75
131,159,121,73
131,149,117,72
129,140,114,70
125,131,111,69
122,121,109,68
148,109,108,66
206,96,108,65
228,84,107,64
171,74,107,62
123,71,107,61
120,75,107,60
127,83,107,59
126,90,107,57
126,94,108,56
126,95,108,54
126,95,109,52
126,94,109,50
126,93,110,47
126,92,110,44
126,89,110,41
126,85,110,38
125,78,110,35
124,70,110,32
122,63,110,28
120,57,110,25
118,53,111,22
115,50,112,18
114,48,114,15
114,47,117,11
115,46,119,8
119,46,122,5
124,47,126,2
131,49,130,0
137,55,134,0
141,67,137,0
142,90,140,0
143,122,141,0
142,157,142,0
139,186,141,0
135,203,140,0
134,207,137,0
133,201,134,0
132,191,131,0
132,180,128,0
132,169,125,0
132,160,121,0
131,151,118,0
127,142,115,0
123,133,112,0
138,122,110,0
192,109,109,0
235,96,108,2
194,85,108,4
133,79,107,9
123,81,107,14
128,89,107,21
127,97,107,28
127,103,107,38
127,105,108,47
127,106,108,58
127,105,109,69
127,104,109,80
127,103,109,91
127,100,110,101
126,96,110,112
126,89,111,124
125,81,111,136
123,73,111,149
122,67,111,162
119,61,112,174
117,58,113,186
115,56,115,196
114,55,117,207
115,55,120,218
118,55,123,228
123,55,127,239
130,56,131,249
136,61,135,252
140,72,139,255
141,93,141,255
